,0,1,2,3,4,5,6,7,8,9,10,11,12,13,14,15,16,17
0,35.01131058,22.8462944,20.30522156,0.569449425,-11.2795639,12.14306164,12.37351608,41.84424973,-39.43245316,47.46545029,45.40867233,50.54841614,161.5493164,164.1978302,188.8802795,168.2536316,176.053299,198.7737274
1,37.07084656,25.22733116,22.76695251,2.6305511,-9.11846447,13.72353458,11.96328545,40.65187836,-40.1448288,46.04514694,44.06691742,49.49146652,160.6403046,163.3410187,188.0842285,167.2533569,175.050705,197.6853027
2,35.63580704,23.14369965,11.12038994,0.137225866,-9.177800179,14.75709915,-34.7848587,-13.46349812,-13.53060913,-13.24926472,-17.84204292,-15.20757198,141.175354,151.9663086,151.5788269,156.65448,164.3227692,186.0554962
3,77.09231567,40.0585022,6.988032818,-27.87986565,-59.65091705,3.458131313,11.40862465,-58.04111481,-67.61574554,-57.40792084,-29.97745132,28.15625191,166.0055695,204.3739624,212.7283325,214.908493,212.6722412,207.9231873
4,33.64495087,21.6245327,17.90618896,-0.498005211,-12.40266037,10.68422222,12.38335228,41.72875214,-38.40172577,47.77067184,46.14984131,51.64403152,162.5763702,164.3812103,189.4270477,168.4130249,176.2997894,198.9633331
5,32.94390488,20.92784309,17.3584137,-0.944397748,-12.88602448,10.57412338,11.79080486,41.95227814,-38.9584465,47.98682404,46.13512421,51.31561661,164.1113129,165.8258362,190.413681,169.9524078,177.9138489,200.5786438
6,31.62049484,28.9181633,19.08174896,9.250408173,3.872296333,20.54305267,8.201515198,47.12332535,41.07444382,37.62617874,30.37874031,52.06456375,194.0575714,179.2275543,179.0239105,183.1990662,192.8526611,211.526825
7,36.16072083,21.94443512,9.459207535,-1.732542157,-11.59408474,12.70484829,-39.96308136,-16.21193504,-15.83274555,-15.09383202,-19.71310043,-17.69538498,146.0220642,156.1919861,156.3426819,161.2528229,168.6375885,189.7996979
8,83.08483124,10.17256165,1.239357829,-12.08075237,-23.18861008,-3.423261881,-10.53831005,-20.37095451,-16.86878395,-13.0374527,-16.81293678,-24.03181076,198.2301178,178.8265533,178.0695496,183.0489502,188.4866791,213.3404388
9,33.96053314,21.67247963,9.615766525,-1.433119535,-10.79208946,13.37915134,-35.60338974,-14.80996799,-14.81072044,-14.41088963,-18.99497604,-16.35297012,139.7352142,150.952179,150.8636017,156.144516,163.8292694,185.086731
10,42.62978363,32.32618332,30.41909218,10.17327595,-1.277567625,23.03465843,10.56715202,40.49472427,-40.22094727,45.82952881,43.94698334,49.16212845,164.2835541,166.4670105,192.0822296,171.4391327,179.7890472,201.6670532
11,8.75610733,30.01284409,7.896499157,-3.576633215,-14.42554665,3.731039524,10.32828522,-38.49812698,49.31201553,54.04083633,50.15556717,46.68232346,162.7379608,187.5512238,159.4915466,163.1002808,169.6825562,195.2033844
12,9.532123566,30.8685112,8.238098145,-3.182231903,-13.97142887,4.446782589,10.3538475,-38.82552719,48.95545578,53.84212494,49.94950867,46.23747635,161.0000916,186.9373779,158.7665405,162.5961151,169.1787872,194.519516
13,82.34470367,8.848402023,0.114109993,-13.23295879,-24.39590836,-4.542357445,-10.51455879,-20.85076332,-17.04289818,-13.08921623,-16.91721725,-24.02842903,198.9554443,179.6574249,179.086441,184.0948639,189.4819794,214.267868
14,33.96512604,22.13054848,18.01362801,0.038405389,-12.0650053,10.88648129,11.06305885,40.48433304,-40.05309296,46.73511887,44.85432053,50.44762039,165.5350342,167.1068726,192.6600952,171.1104279,178.9546814,202.1625977
15,37.04666901,21.6484623,9.092342377,-2.321802616,-12.36662865,13.42306614,-40.26613998,-14.70196915,-14.36839294,-12.88547993,-17.11625862,-14.69992638,156.2302856,165.1225128,166.1135559,171.2814636,178.8855286,198.6052399
16,35.18735886,20.65675163,8.049284935,-3.461932898,-13.62263298,11.21105003,-39.80690765,-14.88056946,-14.65746498,-13.48011494,-17.89373016,-15.32428646,158.164856,167.2386932,167.5309753,172.3687439,179.7399139,200.5081024
17,34.02448654,21.67086792,9.578934669,-1.440592051,-10.84108162,13.40389824,-35.1099205,-14.42196941,-14.40343857,-14.02999401,-18.66364479,-16.27422714,138.0310669,149.6721649,149.6720734,154.9848633,162.6108551,183.8004456
18,35.80765915,23.280056,11.13275337,0.089302063,-9.271996498,14.7430563,-35.0267334,-13.31147385,-13.32059574,-12.98383236,-17.60584641,-14.96087837,140.6220703,150.4586945,150.2008362,155.2187042,162.8410492,184.3834839
19,34.52116013,23.13778877,11.02506447,-0.082529187,-9.439858437,14.46772575,-35.58528137,-13.92934704,-13.96137333,-13.85619354,-18.59498215,-16.80555344,137.8887177,148.6200104,148.2896118,153.1400757,160.5471802,182.7671204
20,35.74846649,23.98524475,11.97950363,0.907711864,-8.467019081,15.02837372,-36.65003204,-14.70907593,-14.81371689,-14.63288212,-19.24870872,-16.68134117,140.7064362,151.1669312,150.6854858,155.4542694,162.8479462,184.9056549
21,8.254684448,29.29202843,7.156484604,-4.297631264,-15.07249546,3.043761253,10.34519863,-38.28202057,49.33796692,54.04921341,50.07893753,46.56943512,160.7705231,185.3806763,157.7961121,161.3847504,167.9416199,193.3032532
22,9.209349632,29.62810135,8.0300951,-3.376876831,-14.3131628,3.446344852,7.300447464,-40.7565918,46.90520096,51.52614594,47.60272217,44.19172287,161.7838593,186.5677643,157.7787933,161.0401459,167.3985138,193.1812439
23,87.18167877,10.9016037,2.576289654,-10.54550838,-21.51654053,-2.023331165,-4.503312111,-19.29327774,-17.11487007,-13.85773754,-17.70995903,-22.58956909,210.0414124,184.4540863,182.7619629,187.2050171,193.0498199,218.0332947
24,9.191561699,31.76008606,8.581549644,-2.860933304,-13.61340618,4.845649719,10.49686718,-39.12602615,48.39375687,53.31811523,49.3759079,45.73662186,160.8783417,187.5248108,159.1815186,163.0989838,169.6616669,194.9606781
25,71.78301239,37.02378845,5.190077305,-28.51177025,-59.84941101,2.198490143,8.058221817,-57.66875839,-67.48178101,-57.15553665,-30.61477089,26.48909378,158.7287598,194.9001923,203.2073059,205.2106476,204.911026,204.325592
26,9.013007164,30.24358749,8.341824532,-3.086587906,-14.02410793,3.503381729,10.1212244,-39.09851456,49.03436661,53.83592606,49.82739258,46.25362778,158.4922943,184.8024139,155.2773285,158.7223053,165.044693,191.0556946
27,87.21871948,11.68755436,3.461055994,-9.734401703,-20.65058517,-1.486345053,-8.993311882,-19.60246849,-17.38551712,-14.06963921,-17.93172264,-23.96048737,205.8288116,181.2328339,179.4962158,184.1634674,189.7578125,215.2930298
28,8.837608337,28.01344109,5.767203808,-5.71171999,-16.56221199,1.727940083,6.617404938,-39.94092941,46.66180038,51.37277985,47.643116,44.46989441,164.4182587,190.3808594,160.6315918,163.9305267,170.4158783,195.7733307
29,73.50257111,39.09155273,6.13799572,-27.90052032,-59.6252327,3.48158145,7.476934433,-60.1353035,-69.42675781,-58.93413162,-32.03780746,25.47282028,157.0225677,195.3668213,201.8176575,204.2090912,204.798172,202.58461
30,30.00154686,29.80812263,20.45804405,10.34812832,6.083433151,21.75826263,1.432312965,41.16154861,37.20460892,32.50835419,20.71401405,43.36348343,177.3508606,163.6091919,162.6973419,166.6303711,177.3660736,196.1187592
31,76.10644531,38.8564682,6.057488441,-28.6311512,-60.36200333,2.917526007,10.89478683,-58.00443649,-67.55613708,-57.2412796,-29.74180794,27.87735176,164.6818848,201.6678619,210.667038,213.378067,211.7884521,207.880249
32,8.145733833,26.37147903,4.902891159,-6.622612,-17.64550209,0.468832999,6.316400528,-40.0225296,46.13119888,51.03130722,47.41633987,44.27526093,162.66745,189.1394653,158.9619293,162.2133636,168.5252228,194.1452026
33,9.238315582,31.25954247,8.213463783,-3.198124886,-13.9489584,4.36181879,10.2913332,-38.79148483,48.74923325,53.54544067,49.55893326,46.24893188,159.5797119,185.7400513,156.6129608,160.2828827,166.8826447,192.2234955
34,86.84493256,11.27811337,2.950527906,-10.17060757,-21.03583908,-1.675414085,-8.52165699,-19.30220604,-17.24451637,-14.07989502,-18.0261879,-23.9479866,205.778595,181.6048431,179.9076538,184.5381622,190.2375946,215.6737976
35,35.52411652,21.18359756,8.447257996,-2.999348164,-13.09120083,11.77655506,-40.11008453,-14.89029026,-14.76178551,-13.72170162,-18.25372887,-15.70350456,158.0150909,167.1732025,167.4127045,172.2459564,179.6891479,200.4139709
36,33.69261551,20.92745781,8.36080265,-3.073248625,-13.31486893,10.69615173,-39.76231003,-16.04032135,-15.66214275,-14.92526245,-19.51916313,-17.64281273,148.8944397,158.0509949,157.9583893,162.6831512,169.6173553,191.5547638
37,9.411923409,30.93335342,8.145789146,-3.224073172,-14.00025368,4.386161327,9.699109077,-39.44314575,48.39287949,53.22294235,49.24757385,45.86231232,160.0504913,186.6616364,156.9923706,160.695816,167.2941437,192.7054291
38,36.8708725,22.05933952,9.349054337,-2.007174969,-11.94320488,13.46035576,-39.95752335,-14.55611706,-14.37092495,-13.1030674,-17.44427299,-15.12172127,154.6910706,163.8508453,164.4801331,169.5862579,177.1879578,197.2482758
39,35.26142502,21.58641434,9.070542336,-2.096647739,-11.95470238,12.43656254,-39.47123337,-15.36910057,-15.04286003,-14.37560081,-19.14278793,-17.30786705,145.9853058,156.216629,156.5056763,161.3990784,168.730072,189.5877838
40,12.61102486,31.09252357,9.110649109,-2.281614542,-13.24755859,5.095137596,2.542295456,-44.45618057,41.66821289,47.10668945,43.81639862,41.0622673,162.3284302,190.9903717,157.1281586,160.697998,167.3192444,193.3533478
41,75.82924652,40.82927704,8.788589478,-25.17512894,-57.41724014,5.600449085,9.505495071,-58.24375534,-67.54371643,-57.27552032,-30.08644485,27.29825211,162.0922241,200.9324493,208.6316071,211.8532867,212.3158264,207.7977753
42,9.116211891,30.02631569,7.601125717,-3.796957731,-14.59240818,3.569745302,10.59640121,-38.3728981,49.48463821,54.25838852,50.27678299,46.70701599,159.6245117,184.667511,156.6712036,160.3968506,166.9115295,192.2658844
43,30.28653145,30.21512794,20.62426567,10.64556408,5.865571499,21.54462051,2.441477776,42.17375183,36.91692734,33.1025238,21.25574684,44.35152817,178.8080597,164.9681396,163.9846039,167.7073822,178.5317993,197.5062103
44,76.75824738,38.86749268,6.316087723,-28.3909111,-60.60942459,3.079828262,10.34983253,-59.01492691,-68.37398529,-58.1466217,-30.34688759,27.29965401,165.1313324,202.2168884,210.8070374,214.3543701,213.225174,207.9442139
45,84.88066864,11.26766205,2.481374025,-10.88058186,-21.96261215,-2.143191814,-11.18212318,-22.20380783,-18.4627018,-14.64739323,-18.51589775,-24.93555069,198.9685822,177.6854553,176.8380432,181.6530914,187.1521301,212.1713715
46,28.94156837,31.95127678,21.78805733,11.06330204,9.030448914,21.74736023,5.931277275,45.2650528,43.62931061,38.44479752,19.51365089,51.13365173,190.6676636,174.5866394,174.5140991,179.7675934,194.2207031,209.7007599
47,77.02496338,39.36343765,7.317901134,-27.32517052,-60.00107193,3.79233408,9.869670868,-59.35441589,-68.71617889,-58.51234818,-30.80645752,27.02201462,164.6368408,201.2913055,209.4598236,213.1501465,212.8926697,208.092926
48,13.99035072,32.11537552,10.09707546,-1.293666959,-12.27526474,6.365854263,2.656274796,-44.14866257,42.06963348,47.37195206,43.93586349,40.8127327,160.2949829,188.3265991,156.1719208,159.872757,166.3516998,192.0945892
49,9.715044022,30.79458809,8.234472275,-3.195524693,-14.06994915,4.16569376,10.07082272,-38.66769028,49.16671753,54.01403046,50.19353485,46.58190536,163.2435913,188.3821869,159.716095,163.4823914,170.0878601,195.7447205
50,9.587112427,30.96565628,8.196233749,-3.250373602,-14.13690948,3.855504274,9.879860878,-39.3872261,48.53738022,53.41837311,49.51210022,46.10459137,160.9725037,188.0205841,157.6344757,161.2276611,167.68927,193.6708527
51,36.24991989,22.28276253,9.888962746,-1.27540946,-11.16593647,12.99919796,-39.35964203,-15.61469269,-15.27809715,-14.62005329,-19.32227516,-17.38335228,146.1799164,156.5011597,156.6059113,161.4521332,168.7191925,190.0055084
52,84.57067871,11.15215683,1.942951918,-11.2881813,-22.19968605,-1.897538304,-8.588280678,-19.55329323,-16.5697403,-13.16402531,-17.33795929,-24.30941582,201.6625519,181.4592133,180.404068,185.1398163,190.5844574,214.8093567
53,86.01191711,12.48821259,3.000441551,-10.2497921,-21.12259674,-0.56153959,-6.394265175,-18.30339432,-15.44574261,-12.3034544,-16.67142105,-23.17931557,203.6100006,184.891983,183.7281799,188.1754456,193.7375641,217.6324921
54,33.00414276,20.45220757,7.894508362,-3.472422123,-13.71569347,10.29565334,-39.70856476,-15.54019451,-15.14368916,-14.42107677,-19.17098808,-17.69270515,149.5352478,158.9376068,158.9126282,163.6436157,170.5397491,192.1560059
55,35.09540558,20.77186012,8.131206512,-3.382744789,-13.58282661,11.14211178,-39.7256546,-14.59623718,-14.38880348,-13.3018465,-17.76893044,-15.31110001,158.0760803,166.9406128,167.1539459,171.9112854,179.2259064,200.1711273
56,8.393005371,29.66669273,7.53791666,-3.949501991,-14.77108765,3.469541073,10.25052738,-38.50194168,49.29047394,54.0029335,50.11165237,46.64795303,162.8955994,187.6523132,159.6751099,163.2802124,169.8822479,195.3403473
57,11.17501831,29.29613113,7.896373272,-3.476721287,-14.40869713,3.25492239,2.181056023,-43.25067902,42.30607224,47.47276688,44.23665237,42.08056259,165.1570892,191.7851257,158.5493469,161.582962,168.1475677,194.4365997
58,30.33358002,29.50572968,20.25278282,10.28856754,4.193306923,21.54911423,3.248387337,42.59209061,38.92829895,32.28306198,23.82769012,45.27093124,183.6177826,169.5806427,168.7902985,173.8778076,184.5647278,202.8438416
59,36.12189865,21.95965195,9.523851395,-1.691366792,-11.62868214,12.59835529,-39.74260712,-16.11037254,-15.71779251,-14.99654961,-19.68843842,-17.8802433,147.1024628,157.3280945,157.4540405,162.3265381,169.5272675,190.9089813
60,34.97283173,20.48646164,7.848907471,-3.659838915,-13.7760849,11.2050705,-39.67612839,-14.67172337,-14.53829861,-13.41697788,-17.8529911,-15.2158165,158.2252808,167.555191,167.9762421,172.8358154,180.2294769,200.7888794
61,38.00519562,23.54078484,10.97632217,-0.446632981,-10.31386852,14.27889156,-41.6771431,-17.52243614,-17.52238655,-16.81569481,-21.4095192,-18.02478981,157.098175,165.7505646,165.824585,170.5675964,177.9491577,199.1454773
62,31.32209778,30.67178726,22.03097343,11.76785278,5.626085281,22.40967751,4.761514664,44.26617432,40.78915024,33.29140472,25.38151169,47.01460266,186.7140198,172.1873169,171.368042,176.2836761,186.628006,205.1692657
63,35.05703354,20.85372353,8.247737885,-3.228745699,-13.29979038,11.43431664,-40.52165985,-15.58289623,-15.5301075,-14.49968338,-19.00297737,-16.47125816,157.0141602,166.1386414,166.3152924,171.1596375,178.5624542,199.6819763
64,34.18484116,22.29878616,10.1898241,-0.87272203,-10.11200237,14.1358881,-35.77339554,-14.05869198,-14.16402912,-13.98444557,-18.78342438,-16.86910439,138.2514191,149.5930481,149.5415649,154.6486664,162.2225342,183.7737122
65,35.05307007,22.91855431,20.40955353,0.695091069,-11.18030262,12.27953148,12.43759823,42.09951782,-39.70214844,47.43311691,45.39730453,50.42178726,161.3326721,164.0128632,188.4572144,168.0984955,175.9239044,198.7182159
66,35.23119736,21.81394386,9.353779793,-1.851429939,-11.75203037,12.50619984,-39.20824432,-15.2076683,-14.89127064,-14.25972366,-19.07971954,-17.19298935,146.3611908,156.477066,156.6608887,161.5082092,168.7805328,189.7393951
67,29.97998047,29.83501053,21.49312782,11.04717922,5.297458172,21.63783646,5.342837334,45.07297897,42.26887512,34.38503647,25.36002541,47.66263962,187.2978363,173.0327301,172.546875,177.3201904,187.8241272,206.2064209
68,8.402778625,29.55485725,7.24989748,-4.207648754,-15.03887939,3.266913176,10.38262272,-38.32812119,49.36965561,54.11127472,50.20318222,46.68714142,161.6042633,186.4894562,158.5506287,162.2372284,168.8552399,194.224884
69,74.51352692,40.35960388,8.852038383,-25.03835297,-57.09911728,5.218926907,7.388458252,-59.69356537,-69.58455658,-59.39749146,-32.79729843,24.86218834,158.2725067,195.7760315,204.2456512,206.8998413,207.4355621,205.0740356
70,29.85314178,31.06706619,19.79856682,10.69817924,8.792334557,20.24706078,5.922681808,45.28945923,37.75471497,32.25355148,21.76089096,52.84880066,196.9025421,179.4627838,179.0321198,185.0758057,194.0062408,214.0084534
71,34.860466,21.88846016,9.496353149,-1.742887497,-11.62235546,12.54297161,-37.69816589,-14.58328152,-14.29817104,-13.7980442,-18.64850426,-16.87664413,144.4105377,154.9287567,155.0675659,159.8566895,167.0018311,188.3226929
72,10.47701168,31.85666466,9.28190136,-2.204342127,-13.09108925,4.983189106,9.244746208,-39.98923492,47.31703186,52.31987381,48.49061966,45.10147095,159.6472931,187.8920441,156.8754272,160.4721375,166.8805237,192.8909607
73,87.55905914,12.38757515,4.004235744,-9.149757385,-20.04263687,-0.683931828,-4.990469933,-18.49402046,-16.80227661,-13.68010998,-17.61970139,-21.64815903,209.4763031,183.5790253,181.7608643,186.3158417,192.1849213,217.476181
74,12.35356236,30.67547607,9.337352753,-2.056002855,-13.08113194,4.805311203,3.471806526,-42.88728714,42.55997467,47.95834732,44.70301056,42.12777328,161.5105133,189.1871033,156.3311462,159.7033386,166.1059418,192.3233948
75,83.88365936,11.32317448,2.653588057,-10.84364033,-21.90090942,-2.356760979,-11.13091183,-21.30384254,-17.66963387,-13.74668407,-17.56129074,-24.70677376,195.8539581,174.5144958,173.6984253,178.9332428,184.3425903,209.558548
76,35.92411041,21.2648983,8.731189728,-2.715169191,-12.89035892,12.25589371,-42.36876678,-16.9518795,-16.62380981,-15.43083763,-19.71131516,-17.36473083,156.4854736,165.6300049,166.0437012,170.9329987,178.3987122,199.2710724
77,90.5681839,14.84676456,6.456575871,-6.759290695,-17.68346786,1.761268973,-5.815505981,-19.15447807,-17.1986599,-14.1686554,-18.41724777,-23.67710114,209.1486664,184.3786316,182.7029419,186.9629364,192.4007874,217.5933685
78,34.90380096,20.74395752,8.045223236,-3.390398741,-13.45399952,11.36948013,-39.76130295,-14.89419556,-14.80239391,-13.78934002,-18.28285217,-15.67237473,157.8983459,167.0331116,167.2342987,172.1239471,179.5821838,200.3686066
79,29.85681725,29.7385025,20.46624374,10.39017963,5.963126659,21.68478584,1.533987045,41.46284103,37.29333496,32.80221176,20.75329018,43.40953064,177.8181763,164.2677307,163.3613739,167.2586365,178.1904449,196.8803101
80,36.32432175,23.75475311,20.67939758,1.924488187,-9.023140907,14.32761192,12.35969162,41.59227753,-37.87585449,44.397995,43.80393982,48.96993256,157.1964722,160.1602936,180.5847168,164.6295929,172.8390656,194.9185333
81,34.73637772,22.66819763,18.83069229,0.282852441,-11.74346352,11.35359383,13.41472912,42.14009476,-37.82147217,48.03055954,46.42679214,52.02676773,163.4949036,165.5376587,190.9857635,169.6219482,177.2108154,200.1505737
82,35.10650253,20.80478287,8.138095856,-3.356779099,-13.56312561,11.17837143,-39.79987717,-14.57400036,-14.33214188,-13.20583916,-17.67266464,-15.30380917,157.9221344,166.8096313,167.0232086,171.816803,179.1696014,200.0293579
83,85.08735657,12.28904915,3.716902256,-9.74374485,-20.80537605,-1.469995379,-12.33286095,-21.70855904,-17.72645569,-13.8946991,-17.58917999,-24.65350914,196.7492981,173.8747711,173.0320435,178.1822205,183.7078857,209.2649384
84,34.53188324,22.82245827,10.69206905,-0.413857996,-9.673541069,14.44091511,-36.02159119,-14.44715977,-14.51659107,-14.37678909,-19.12966537,-16.98497391,138.2108612,148.7658081,148.6345825,153.6078949,161.1438293,182.9142151
85,84.6230545,11.14948273,2.232799768,-11.13968086,-22.16530418,-2.340283155,-11.39474773,-21.66168594,-18.10295296,-14.41423798,-18.32204819,-24.94249153,199.1051941,177.8261261,176.8599091,181.7414246,187.2767487,212.2570038
86,10.57617378,33.10708237,9.735450745,-1.763934612,-12.91540241,4.643873215,2.792108536,-45.15729141,40.64245605,45.82828903,42.91365433,41.32938004,161.6535034,191.9827118,155.0594788,157.7693787,164.7276154,191.8961792
87,36.83722305,24.7043457,22.37342644,2.396589279,-9.309746742,14.14743805,12.02398586,40.38898468,-39.74548721,45.64292908,44.04621887,49.58161163,159.3972015,161.6777191,186.6853485,166.1497345,174.2223053,196.6048431
88,32.68591309,20.85521126,17.15187454,-1.120757103,-13.11418533,10.21856308,11.71971893,41.68051147,-39.60264206,47.92974091,45.95058441,51.09542465,163.5892334,165.5053711,190.7642975,169.5411835,177.4041901,200.2781067
89,34.55760956,20.92383385,8.350280762,-2.82517767,-12.70943642,11.53308773,-40.11942291,-15.95210361,-15.64735222,-14.95218277,-19.65001869,-17.6871109,147.9037476,157.7033081,157.8349915,162.7338562,170.0388336,191.0496674
90,74.39661407,40.66877747,8.842926025,-24.96489906,-56.73326492,5.357905865,7.1635952,-60.02044678,-69.86933899,-59.53937149,-33.05121613,24.73086739,156.7354584,194.7766571,202.6614838,204.6795654,205.1398315,203.3997803
91,86.38473511,10.28629017,1.96204555,-11.19177341,-22.16704369,-2.715704441,-4.398683548,-19.30899048,-17.19868279,-13.86133766,-17.66287613,-22.36750221,209.6715851,183.5043182,181.845047,186.4242249,192.306839,217.3165283
92,71.95441437,37.26066971,5.120419025,-28.66440392,-60.05426407,2.229147434,7.907308578,-58.22612762,-67.85688019,-57.54605865,-30.78774643,26.33385849,158.804306,195.7014465,203.5383911,205.6667328,205.2303162,204.083725
93,10.76744843,32.76729202,9.303937912,-2.150713682,-13.31419182,4.79750061,2.508871078,-44.62890625,42.36349487,47.28131104,43.99980927,42.27553177,168.9891205,196.2830811,160.335495,162.618576,169.7313995,195.8094788
94,36.10443115,21.37940025,8.794034004,-2.666666985,-12.87555504,12.35732746,-42.40273285,-16.96932602,-16.63915062,-15.37294388,-19.63190269,-17.37508774,156.7489929,166.108017,166.5295105,171.4440308,178.9442139,199.6825409
95,10.08913708,30.32519531,8.552081108,-2.841832638,-13.81243706,3.925747156,7.548666954,-40.55632401,47.28909683,51.99305344,48.0881424,44.57083893,162.4085388,187.7814484,158.466568,161.7569122,168.1121979,193.9655762
96,33.89827347,21.94783974,9.893782616,-1.148878336,-10.47152805,13.56503868,-35.478508,-14.74396801,-14.80884266,-14.49724197,-19.08244324,-16.34116554,139.8204193,151.1919556,150.9840546,156.2383118,163.9030914,185.2820129
97,35.50393677,21.1698761,8.434979439,-3.010623217,-13.10072041,11.76854706,-40.08879471,-14.86973095,-14.73898792,-13.69837189,-18.22935295,-15.68557549,158.0020905,167.157547,167.3984375,172.232605,179.6783447,200.4045258
98,75.01987457,38.78635025,6.224936962,-27.89660835,-59.57812881,3.536957741,9.19534111,-58.64195633,-67.97554779,-57.49531174,-30.34442329,26.70424843,164.6501312,202.3657074,210.2892914,213.0357513,212.8328094,209.2607727
99,31.40987396,30.3722496,21.6465683,11.42640018,6.525968075,22.16378403,5.127662659,44.53537369,41.73954391,36.09572601,25.4060173,48.0509758,188.4329071,173.223053,172.6400146,177.268631,188.6072845,206.3263092
100,10.8427372,31.62395096,8.65384388,-2.824247599,-14.07499695,3.77540946,1.802873611,-46.36172485,40.72505951,45.83578491,42.80452728,40.87270355,162.1908112,192.6021271,154.785614,157.3489075,164.2339783,191.2364197
101,34.0789566,22.05510139,9.996941566,-1.053629398,-10.35394859,13.73600864,-35.56934357,-14.70104218,-14.77858829,-14.48350143,-19.12251663,-16.43240738,140.4172211,151.8769073,151.7266693,156.9857483,164.6643219,185.8604279
102,34.02018356,20.85957909,8.137347221,-3.230338812,-13.37559414,10.77996063,-41.2083931,-16.68806648,-16.53966904,-15.96097851,-20.61700821,-18.2458477,152.1201935,160.4884338,160.3964844,165.0319824,172.1260529,193.8401947
103,32.31437683,32.13623047,23.04798889,13.14330292,6.749046803,23.41857147,4.278874397,43.45619202,38.77319336,30.13731003,23.10931969,46.2519989,185.716156,171.8632965,171.2082825,176.4470978,185.9479675,204.5259857
104,84.13913727,11.12770939,2.390175343,-11.05292511,-22.14499283,-2.845599651,-11.15489769,-21.44660378,-17.63070679,-13.84120846,-17.68561935,-24.80074501,198.1864624,175.8278198,174.805954,179.7073517,184.9781494,210.3184662
105,7.487009048,26.04997826,4.993070126,-6.578582287,-17.68408585,-0.178989261,6.657794952,-40.0781517,46.07884216,51.09505844,47.47772217,44.52404785,162.8782196,190.0416565,158.6755981,161.7119904,167.8986664,194.0475616
106,8.459972382,29.70166969,7.620559216,-3.865882635,-14.78897667,3.074128866,10.49952507,-38.46879196,49.11115646,53.94968796,50.0229454,46.50350952,159.3564453,185.0569153,156.5982513,160.2454224,166.6546936,192.3795624
107,34.00377655,22.9405098,19.89287376,1.006219029,-10.70567989,12.5778532,9.643629074,40.5672226,-41.02854538,46.28399658,44.11125946,49.29787064,164.0488129,165.4216156,191.3031006,169.6025085,177.7719574,200.4324493
108,78.3161087,41.2823143,9.306260109,-24.97543907,-56.99297333,5.184889793,12.0708065,-57.40516663,-66.86530304,-56.9123764,-30.023386,28.71221733,165.2343445,203.3023682,211.0180664,213.2146606,212.1421509,207.7933655
109,84.04745483,11.02916622,2.162681818,-11.28267002,-22.32294846,-2.588976383,-10.80295467,-21.40472794,-17.6095314,-13.76104832,-17.71204758,-24.75476074,197.6967621,175.9515076,175.2097626,180.3018951,185.6069946,210.6890411
110,29.97082901,28.50267982,18.95810127,8.737668037,4.094229221,20.05112839,7.185445786,46.38127518,41.95159531,38.43413544,28.36358261,51.14868546,192.331665,177.1703186,176.7431793,180.801712,191.7445374,209.8182526
111,37.31351089,26.58166313,24.75450516,4.308027267,-7.383885384,16.36453247,9.950894356,40.20841599,-42.04401016,45.75439072,43.42040634,48.77330399,167.2420654,169.2931366,196.521225,173.7371674,181.7359467,204.3715363
112,8.331941605,29.34453583,7.207707405,-4.247230053,-15.03118896,3.073375702,10.33872032,-38.29492569,49.33637619,54.04322433,50.07260513,46.56599808,160.7532806,185.4051361,157.7771912,161.3609619,167.9092407,193.2828674
113,90.7212677,14.77213764,6.41616869,-6.787100792,-17.70053101,1.767349839,-5.721938133,-19.23640633,-17.07803154,-14.00557995,-18.27897263,-23.72184944,208.8895569,184.0050964,182.5211029,186.8070374,192.2183533,217.3690491
114,36.045681,21.92753601,9.420986176,-1.764984012,-11.63936234,12.5835886,-39.9270134,-16.10276985,-15.74961185,-15.0436821,-19.68357468,-17.69563293,145.815506,155.8876801,156.0014343,160.8683014,168.178421,189.4335785
115,34.30040741,22.68708992,19.72899246,0.61671418,-11.19637108,12.38259697,10.52533627,40.58480453,-41.22733688,46.54968643,44.39429855,49.8669548,165.499054,167.1215668,194.7631836,171.4966431,179.596756,202.0691223
116,86.40504456,10.59377956,2.435586929,-10.75482273,-21.77753448,-2.491717339,-8.060025215,-20.01576233,-17.38349152,-13.99087429,-17.64833641,-23.49419785,207.5013885,182.2341919,180.6758423,185.5207214,191.2719574,217.0583801
117,36.52129745,22.38619995,9.942939758,-1.278419375,-11.13148689,12.83787632,-39.95462799,-16.37307167,-16.04009438,-15.35766983,-20.07983589,-18.03508186,146.1334534,156.166275,156.1065521,160.9339142,168.1998596,189.7939758
118,36.97441101,22.24474144,9.479260445,-1.84596324,-11.73978043,13.70090008,-39.89546967,-14.23490143,-14.17084122,-13.09758949,-17.6152668,-15.35806751,154.0028839,163.1129761,163.7739716,168.8072205,176.3744507,196.5024719
119,34.26239395,20.43807793,7.91833353,-3.266219139,-13.1031208,11.17335415,-39.86881256,-16.20925522,-15.93045807,-15.18511295,-19.81034088,-17.61379814,147.7654877,157.5432281,157.6852264,162.7071533,170.0657043,191.1459045
120,33.92734909,22.13682175,10.06962013,-0.982140124,-10.27941513,13.69033241,-35.44172287,-14.52916813,-14.63891029,-14.4045639,-19.03973579,-16.37186813,139.8441467,151.3015594,151.0604095,156.2527466,163.8820801,185.3227234
121,73.35261536,39.28841782,6.612408161,-27.44412422,-59.16054153,3.698651552,7.616293907,-59.87418365,-69.4087677,-58.93846893,-32.10189438,25.50153732,156.7048187,195.2349091,202.4260254,204.6591034,205.0153046,202.8044281
122,8.058081627,26.36263466,4.907174587,-6.683970928,-17.7625618,0.199437961,6.890907288,-39.50407028,46.47672272,51.45573807,47.88595581,44.87979889,164.067627,190.7373199,160.0030212,163.2509155,169.5236664,195.3392181
123,76.10987854,39.96949005,8.491604805,-25.36591148,-57.48955917,5.017146587,9.558338165,-58.17961121,-67.47755432,-57.37469482,-30.48715591,27.1673317,161.8947449,199.2745819,207.1825256,209.9437256,210.199585,207.1212158
124,36.13605499,22.34760284,9.6970644,-1.699860334,-11.81558609,12.63089848,-42.02402878,-16.82554626,-16.68343353,-15.79314232,-20.33443642,-17.68391228,155.8851166,164.3375549,164.4388733,169.0934753,176.2699432,197.4320831
125,37.12308502,26.46507454,24.74324226,4.210446835,-7.483113766,16.25352669,9.818580627,39.99611664,-42.28600311,45.62535858,43.26070786,48.63339996,166.7153778,168.9125061,196.2980804,173.237854,181.2353668,203.9389343
126,77.67604828,40.04030609,7.166414261,-27.55757141,-59.34702682,3.739057302,11.5473938,-57.94270706,-67.31987762,-57.10432053,-29.75613213,28.36873817,166.3841858,204.7671509,212.7269592,214.9044647,213.0436249,208.1529694
127,82.92221832,10.15998173,0.953922033,-12.37142181,-23.3735199,-3.480147123,-9.354656219,-19.63286018,-16.53736115,-13.08110046,-17.08482933,-23.77850723,202.4335632,182.4612579,181.1689758,185.816452,191.329895,216.3574066
128,38.91537857,27.85237122,26.13116074,5.660666943,-6.073615074,17.75673294,11.07468605,40.4475975,-40.72442627,46.4492569,44.30602646,50.12633896,166.1841125,167.7939758,196.7331238,172.5984192,180.6707611,203.2107239
129,43.90734863,33.64254379,31.06921577,11.32687092,-0.436048627,23.18418694,10.41184235,40.19612885,-39.86032486,45.62485123,43.87771988,49.69831085,166.3697205,167.515274,194.8401794,171.714859,179.7642212,202.1399994
130,36.56372833,22.4231987,9.97108078,-1.25695765,-11.08900738,12.88384151,-40.10459137,-16.48771667,-16.204319,-15.54845524,-20.23644066,-18.00333023,146.057663,155.9701691,155.8899994,160.6586761,167.9419708,189.6367645
131,90.62509155,14.67713356,6.288842678,-6.853245258,-17.72702217,1.660680771,-5.896869659,-18.89212608,-16.88371658,-13.91080379,-18.17835045,-23.7190609,209.1438446,183.5201874,181.9065094,186.2065735,191.6825562,216.9168701
132,34.14253998,22.48165512,19.39845848,0.503637433,-11.24504471,12.33040237,10.69149876,40.75951385,-40.49960709,46.55138779,44.49579239,49.97430801,164.7184143,166.5742493,192.7961426,170.9916992,179.1498108,201.5774689
133,83.3026123,10.36558151,1.346454382,-11.97403908,-22.98616219,-3.158242464,-9.406698227,-19.72546959,-16.28339958,-12.61455917,-16.40979004,-23.21419144,197.4133759,178.3489227,177.480896,182.3562164,187.9714203,213.0321503
134,36.00359344,25.09159088,23.12101364,3.149169445,-8.449893951,15.31842422,9.703817368,39.70003891,-41.25144958,45.54595184,43.3651123,48.88486099,164.8318024,166.0585938,193.2698364,171.0224915,179.2374573,201.5888824
135,35.38729858,21.7811203,9.301120758,-1.897650838,-11.76371384,12.58580589,-39.24988174,-15.29778004,-14.98525047,-14.34216404,-19.1309185,-17.31655693,145.7872925,156.1190948,156.3794708,161.2306213,168.507431,189.4802094
136,36.12633514,21.55073738,9.145449638,-2.03096962,-11.88269806,12.38788509,-39.894104,-16.18540001,-15.78292179,-15.03230095,-19.73189354,-17.86356354,147.0306244,157.3936615,157.5635834,162.4876709,169.7915802,190.9806213
137,75.44663239,39.42266083,7.829302788,-26.01223946,-57.62437057,4.34474802,9.591907501,-57.5658989,-67.26341248,-57.04693604,-30.59428787,27.03385353,162.1989746,199.224823,207.484314,209.4189606,209.3322449,207.2834625
138,75.9935379,39.72966766,7.64212513,-26.68683815,-58.87215424,4.495974541,10.87310505,-57.3451767,-66.84862518,-56.5230484,-29.07429123,28.15629578,163.9576569,202.0266571,211.1325378,214.766983,214.6712799,209.1687164
139,44.46974945,34.30131149,31.5573864,12.05060959,0.220808744,23.60408401,10.36217594,39.40473175,-39.55088425,45.20506287,43.78531265,49.76869202,166.6603241,167.3716736,195.3061523,171.4537354,179.4828033,202.1485901
140,8.689885139,29.5299015,7.549633026,-3.89522934,-14.81092453,3.09158659,10.86263752,-38.44308472,49.56762695,54.46250153,50.48454285,46.5818634,157.8512573,182.9468536,155.4709015,159.2720032,165.6460419,191.2373657
141,36.72484589,25.29481697,23.70375443,3.342406273,-8.187074661,15.90807247,10.02338696,40.23503494,-41.12409592,45.96925735,43.81885529,49.33023834,166.1088257,167.4658661,194.890274,172.5921021,180.8874054,202.9459229
142,11.15056324,33.36288834,10.02445221,-1.475398302,-12.68478203,5.282997131,3.464982986,-44.34681702,40.92451477,46.33448792,43.53773117,41.67156982,160.8423462,190.2676544,155.0654297,158.1481628,165.1477051,192.0396118
143,35.81010818,21.70642853,9.320591927,-1.870581627,-11.71650219,12.39060307,-39.83406448,-16.24921799,-15.86987114,-15.15265274,-19.83869743,-17.8536644,147.0780792,157.4476318,157.4756775,162.3448944,169.6536255,190.9942017
144,34.62200546,21.01055336,8.417742729,-2.736539602,-12.62839317,11.65624428,-40.25668716,-15.86771107,-15.53676987,-14.83005047,-19.56915665,-17.72669601,147.9552002,158.0173035,158.2190552,163.117981,170.4455109,191.2680054
145,10.81382179,31.50190544,8.097920418,-3.23595643,-14.3130188,3.404978514,2.027581215,-44.64767075,41.38338852,46.46483231,43.57667542,41.93911362,164.2886353,192.9866943,156.3776855,158.9320526,165.8654022,192.7202454
146,31.35145569,29.23673248,20.22929382,10.07864475,4.939428329,21.30226135,7.348529816,46.4729805,42.66727448,38.70004654,28.48124313,51.1367569,192.459259,177.052063,176.7406921,181.2228851,192.8189392,210.0681915
147,76.02996826,38.67757797,6.265554428,-28.31382751,-60.48329163,3.155966282,9.998878479,-58.98784637,-68.39599609,-58.04570007,-30.36170387,27.17386818,163.8348999,200.8861084,209.5071259,212.7529755,211.9007721,207.7532043
148,32.83877945,20.66579437,17.32473183,-1.390530229,-13.31760693,10.12875843,11.5762949,41.9748497,-39.56024933,48.20334244,46.04634476,51.06934738,164.6159515,166.7953491,191.3188324,170.7310181,178.6747437,201.3368378
149,88.00883484,12.70448875,4.169119835,-9.024353981,-19.88858986,0.017419377,-7.473870277,-19.02071953,-17.0636158,-13.91102982,-17.89291382,-23.41785431,205.3100128,183.0918579,181.4455872,186.3902893,192.1968689,217.0036469
150,35.17856979,20.65146828,8.047251701,-3.46405077,-13.62465858,11.20565033,-39.80417633,-14.88118362,-14.65950108,-13.48068905,-17.89472771,-15.3238821,158.1521606,167.2498779,167.5441132,172.3804779,179.7496185,200.5139313
151,36.89437485,25.45437241,12.36651707,1.042162538,-9.010586739,15.47988987,-39.1156311,-12.88475037,-12.99524975,-12.5278368,-17.67037201,-16.01795006,150.4863129,159.463974,159.791214,164.4375458,171.3548737,191.8011932
152,35.59758377,21.04653168,8.463716507,-2.956511736,-13.04752541,11.77717781,-41.11161423,-15.80856514,-15.65459824,-14.62614346,-19.06957626,-16.60836029,156.6751709,165.7901154,166.0387878,170.8825378,178.2816315,199.2812195
153,35.10671234,20.57847786,7.96949625,-3.523479939,-13.68405342,11.18829155,-39.81451416,-14.809062,-14.54946232,-13.37938499,-17.80105591,-15.32890892,158.1601563,167.0555267,167.3805084,172.2602692,179.6424866,200.3774872
154,33.34109116,20.290411,7.607141972,-3.783325434,-13.95837688,10.32691002,-41.05954361,-16.54626656,-16.3555069,-15.70491886,-20.4176693,-18.26155472,151.3474884,159.8164825,159.8343506,164.5667114,171.6652069,193.1070862
155,29.55544472,33.27909851,22.42198563,11.38911629,10.83011913,20.90588379,6.055517197,45.497612,42.95355988,37.22371292,15.61896992,51.31775665,190.4722137,174.8451843,174.6551056,179.9490509,194.7273254,209.915741
156,38.03343201,26.56002998,13.57979774,2.485480785,-7.176906586,16.85394669,-37.74750137,-11.56379509,-11.76898861,-11.32228756,-16.38867569,-14.31927967,149.1865082,157.6286774,157.7351227,162.2642365,169.3749542,190.1782379
157,88.92633057,12.98006725,4.555185318,-8.630375862,-19.50079346,0.428458035,-5.528839111,-18.75623703,-16.72277832,-13.66947651,-17.69249916,-23.17333221,205.3062592,182.0754395,180.5497131,185.4236755,191.1807098,216.0725098
158,34.87492371,22.21840668,9.86373806,-1.36080575,-11.25090027,12.82117939,-37.60826111,-14.49865627,-14.18205261,-13.65959644,-18.50614357,-16.89122772,144.1549988,154.8066254,154.8810272,159.6728973,166.8125458,188.2038116
159,33.99492264,22.33945656,10.22054863,-0.872151792,-10.11633873,14.17861843,-35.65565109,-14.39774132,-14.4369688,-14.2902422,-19.03732109,-16.98608971,137.3885651,148.3066559,148.2553864,153.381485,160.9995575,182.6411133
160,30.11856079,29.51727676,19.75311661,9.830323219,5.570014,21.27863884,1.70710659,41.4005928,36.57656479,32.30964279,20.63381577,43.73997879,178.500061,165.2139893,164.2093658,168.2368164,179.217453,198.0201416
161,36.61483383,25.20342636,23.33810806,3.274461508,-8.295744896,15.6723423,9.937542915,40.00409698,-41.22112656,45.92390442,43.80595779,49.27643967,164.9251556,166.5316315,193.8651428,171.4718781,179.7412567,201.9740143
162,83.1492157,43.07742691,9.414413452,-25.17141533,-55.68190384,6.185074329,12.48376083,-59.15742874,-68.04315186,-57.4084053,-31.00902557,27.87794495,170.3853455,209.7713928,216.4157867,215.6992035,212.673584,209.3677063
163,9.163625717,30.26859856,8.122577667,-3.294559717,-14.17722034,3.611150503,10.1861496,-39.10346985,48.89282227,53.72148132,49.74365234,46.30562592,158.425293,184.9113617,155.1116638,158.6333771,165.0160217,190.8679352
164,36.23888016,22.18252945,9.56314373,-1.871265173,-11.97912693,12.81432915,-41.99607468,-17.22127533,-17.00943375,-15.97938251,-20.42020988,-17.69107628,155.9428406,164.4505768,164.7850494,169.634201,176.9754791,197.7720947
165,34.91356277,23.2878437,11.27464771,0.208985329,-9.119592667,14.66946697,-35.56334686,-13.788661,-13.82040024,-13.70243454,-18.40942001,-16.6498642,138.9532623,149.8610687,149.4222412,154.210907,161.6456909,184.0795746
166,32.07158661,30.33242035,21.15907288,11.0607605,4.665112019,22.349823,4.609262466,43.77626801,39.89155579,34.75785446,26.8104744,47.36679077,188.7291412,173.9628754,173.383606,177.9525452,188.670517,206.7275848
167,86.003479,12.91914463,4.386577606,-9.082961082,-20.15526772,-1.006340742,-11.56692219,-20.9505558,-17.43041611,-13.82252216,-17.67297363,-24.90767479,196.3652496,173.6089935,172.1963196,177.154129,182.6187897,208.1016541
168,36.52880478,25.22945786,23.42095566,3.302922726,-8.275019646,15.68485832,9.9807024,40.1125412,-41.27794266,45.95333481,43.8134079,49.28844452,165.0916748,166.578125,194.0814514,171.5009308,179.7996826,202.0907898
169,33.85906982,22.75504112,10.71023273,-0.348153651,-9.702355385,14.12056255,-35.20009232,-13.73596859,-13.81241035,-13.74653149,-18.53088188,-16.75975609,137.5943756,149.3382568,149.0122986,153.9143524,161.3011169,183.3927307
170,14.92175102,33.12791824,11.63733959,0.288591444,-10.52528477,7.410629272,3.193285942,-42.5368576,42.68639374,48.07022095,44.89355087,41.9487648,160.8228607,187.8643188,156.0063782,159.3929596,165.7682037,191.9636536
171,30.72780228,31.94438553,20.722929,11.84870148,9.781712532,21.21731377,6.082385063,45.10278702,37.98498535,31.95370674,22.15262222,52.71184921,195.4200287,177.7467194,177.5457153,183.8274536,192.7101135,212.5738373
172,29.23454094,30.57296181,21.53833199,11.75214386,5.775535107,22.28550911,2.928564072,43.06552505,40.00827026,33.61698532,22.49765968,43.98600006,177.055542,163.5167389,162.4203796,166.932312,178.0003052,196.6663971
173,14.02066422,32.32629776,10.09199619,-1.280338526,-12.21919155,6.503763676,2.582809448,-44.15719604,42.15978241,47.36865234,43.92240906,40.78055954,160.4076233,188.4664612,156.4304504,160.1271973,166.6521912,192.2778015
174,9.431079865,30.03723335,7.741593838,-3.734250546,-14.64887047,3.282274961,9.482334137,-38.76693344,48.55467606,53.41799545,49.6780014,46.43506622,161.4863434,187.2353516,157.3128662,160.7599487,167.2474976,193.1463013
175,12.9410429,32.24238968,10.00734138,-1.410440922,-12.23952866,6.002569675,3.095363617,-43.57302856,41.86679459,47.17309189,43.81088638,41.1746788,162.1254883,189.6458435,157.4717712,160.9859619,167.5063019,193.4113159
176,8.165174484,26.4146862,4.854150772,-6.725204468,-17.77977562,0.184526607,6.597848892,-39.5850029,46.50229645,51.42538071,47.85778046,44.84165192,164.437561,191.078476,160.279129,163.4501953,169.764267,195.5822296
177,34.91419601,21.37858963,8.897092819,-2.296225786,-12.14243984,12.39815998,-38.55949783,-14.86448574,-14.56803989,-13.94290352,-18.77112389,-17.02374077,145.2695465,155.6517029,156.059433,161.0072021,168.2988739,189.0456238
178,36.08967209,22.06800652,9.604581833,-1.596983433,-11.4708128,12.74324322,-39.64028931,-15.83357239,-15.51656532,-14.86345863,-19.61886787,-17.85865402,145.5443573,155.9025879,156.0072021,160.8590088,168.1068268,189.4404449
179,8.119159698,31.56905174,9.430547714,-2.091710567,-13.1043005,4.519925594,9.700099945,-39.31663132,48.39606476,53.27462769,49.35754776,46.19563293,165.3816528,190.4122772,161.3059235,164.5704346,171.2380371,197.1569519
180,9.550581932,30.90866089,8.850329399,-2.580845118,-13.54872608,3.951281786,8.763480186,-39.81602478,47.77955246,52.61011505,48.76218414,45.26968765,162.0001526,188.9862366,158.6879883,161.9602356,168.2483978,194.4377441
181,9.366208076,29.78508759,8.126384735,-3.343117237,-14.33728504,3.18228054,9.269654274,-39.30116272,48.47237396,53.32810211,49.50504303,46.01420975,160.4535828,186.4620667,156.6829681,160.0636292,166.4008789,192.6248016
182,85.78868103,12.62356091,4.147474289,-9.246937752,-20.39507866,-1.234834909,-11.32735729,-21.33317757,-17.24156952,-13.44897652,-17.26922226,-24.72353554,196.2142181,174.2904663,173.5223999,178.4433289,183.7861481,209.1827545
183,10.22648335,30.82354736,8.119877815,-3.297281742,-14.49741745,2.692568779,2.180044174,-45.0269165,41.08023834,46.29608917,43.45091629,41.63396835,161.6684875,190.8636017,154.1736755,156.7191772,163.5368347,190.9302826
184,73.62391663,39.21704483,6.251320839,-27.91702652,-59.48470306,3.564815521,7.461931229,-60.43412781,-69.76454163,-59.24934769,-32.17420197,25.38056183,158.3937988,197.6690216,204.4635773,206.7303162,206.6133728,203.998703
185,34.68515778,21.51231956,9.036951065,-2.150462151,-12.00668907,12.33160591,-38.57675934,-14.90765381,-14.60514259,-13.97412014,-18.76721382,-16.89613724,145.1516571,155.3972931,155.6332245,160.5283813,167.8129883,188.7141113
186,84.79940033,11.31352901,2.428857803,-10.94248199,-21.97960663,-2.370204926,-10.90043831,-21.63236046,-18.07198906,-14.41644478,-18.24703026,-24.78906822,199.2848511,176.7280121,175.6044312,180.4520721,185.9806213,211.3087616
187,35.35496902,22.99053192,20.16501427,0.555673003,-11.33770657,12.08422661,13.1149416,42.55059052,-38.36912537,48.13874817,46.17616653,51.49246979,163.3403473,165.7892761,190.5016327,169.8726196,177.5460815,200.1050262
188,29.63111496,29.61656952,20.45074463,10.16940689,5.876880169,21.62174416,1.564857483,41.09534836,37.72325134,32.63041687,20.41184616,43.23447037,176.1135101,162.4712372,161.6128235,165.7275696,176.6081085,195.1211243
189,35.00988388,21.61412811,9.16824913,-2.024031401,-11.93810081,12.3107605,-38.40539169,-14.69858551,-14.39080524,-13.78667831,-18.61912537,-16.7936306,145.7756195,156.3149261,156.5166168,161.3896637,168.6134644,189.5283966
190,35.94749451,23.53250504,11.51371193,0.552545428,-8.736374855,15.00763893,-34.91663742,-13.36897755,-13.45065117,-13.20207882,-17.83952332,-15.1422348,142.1800842,152.6003418,152.0818024,157.0770874,164.6978607,186.6020813
191,36.63001251,24.55736923,22.18644714,2.215615988,-9.578751564,13.92611122,11.71040344,39.85135269,-40.03973389,45.72320175,44.03353882,49.57168579,159.9363556,162.2904205,187.7708282,166.831665,174.8021851,197.1960907
192,34.99885178,21.61558914,9.187883377,-2.025205135,-11.93336391,12.34318256,-38.40774155,-14.90291977,-14.58323765,-13.92776012,-18.69242096,-16.74556732,145.0142517,155.3983002,155.6425629,160.5605774,167.8109589,188.7229309
193,37.78743744,23.20431328,10.64574909,-0.801630616,-10.69205761,14.04910946,-41.50918579,-17.4037056,-17.40995407,-16.63598061,-21.19347191,-17.8515873,157.068222,165.6566315,165.8665619,170.6871796,178.1032104,199.1681824
194,73.05776215,38.03628159,5.446701527,-28.64357567,-60.25437927,2.855771303,8.207765579,-58.94212341,-68.40536499,-57.95348358,-30.88690758,26.37161064,158.7662201,196.4540405,203.9389191,206.5465088,206.6894073,203.9012451
195,33.5967598,21.24136925,8.687771797,-2.682831287,-12.93932438,10.77897072,-39.83282852,-16.15409088,-15.79273796,-15.09422207,-19.70228767,-17.87056351,149.4714508,158.7038879,158.4065704,163.1270142,169.9788055,191.9369965
196,84.15467072,10.6134901,1.812350631,-11.57762623,-22.62733269,-2.814642906,-11.08410549,-21.87285042,-18.13378716,-14.28622818,-18.14525986,-24.86670876,198.2526703,177.0504913,176.3243103,181.2715302,186.803772,211.8389435
197,31.07230186,29.92923355,21.23258781,10.97741318,4.554724693,22.17303658,5.027581215,44.20203781,41.01599503,35.32590485,27.43693352,47.85596085,190.0738983,175.0107574,174.6970215,179.5072632,190.1508026,207.8993683
198,32.41348267,30.31077003,21.47549438,11.30253696,6.481892586,22.57124138,5.561253548,44.88488388,41.74942017,36.98716354,26.38226128,48.57990265,188.9796295,174.0270386,173.4227295,178.0695343,189.4935455,207.2183685
199,36.43110657,22.24027443,9.8132267,-1.413041353,-11.27381611,12.72048092,-40.07493591,-16.51342773,-16.1718235,-15.46096325,-20.15081024,-18.03051186,146.2208405,156.259552,156.2115479,161.0754089,168.3551941,189.9044342
200,39.72006226,28.62149811,27.29264832,6.620026112,-4.886555672,19.4516449,10.68795872,41.45802307,-41.11082077,46.64864349,44.29109573,49.76758957,165.1908112,166.8661957,194.3784637,171.9215088,180.2098389,202.1579132
201,7.863864899,27.34510231,5.913715363,-5.653673649,-16.73633385,1.10488224,5.790875435,-40.76818466,46.11476898,50.93815994,47.16116333,44.58199692,170.828186,195.3464661,164.8175812,167.7166748,174.3888092,200.1904297
202,82.95153046,10.12416744,1.196946621,-12.15805435,-23.28767776,-3.545113325,-10.61426926,-20.61616707,-17.01365662,-13.16173553,-16.95493889,-24.06407738,198.3502197,178.914093,178.1549377,183.1177063,188.5582428,213.4485931
203,8.803322792,27.98830986,6.496549606,-4.943625927,-15.76028728,2.320681572,6.885509491,-39.80031204,47.39535522,51.98366547,48.19555664,44.73975372,164.5340118,189.1954041,160.6281586,163.8187256,170.3447723,195.776062
204,34.87292099,22.92036438,19.63901138,0.643556416,-11.26490307,11.91257,12.67919254,42.07127762,-38.38596344,47.53256989,45.847332,51.12184525,163.2334595,165.749939,189.8164063,169.5693359,177.3086853,200.195343
205,33.47888565,21.2402935,8.677952766,-2.703453779,-12.96460819,10.7558012,-39.81423187,-16.13012505,-15.77841759,-15.07462788,-19.69823265,-17.88526344,149.4968567,158.7944336,158.5079193,163.2310028,170.0697479,191.9636993
206,35.64601898,20.95967293,8.289197922,-3.172823906,-13.2154007,11.64984131,-39.95386887,-15.02712345,-14.88766384,-13.87568951,-18.3966217,-15.89542675,157.3425446,166.5754395,166.8157501,171.6639557,179.1177216,200.0798187
207,36.17482376,24.81146622,23.0078373,2.92121911,-8.516170502,15.53108692,10.25118256,40.45673752,-40.9427948,45.95491409,43.89876556,49.60808182,166.0354004,167.1416016,195.4623871,172.2516937,180.6422729,202.628006
208,35.83140564,25.27322769,23.28740311,3.210821629,-8.459928513,15.04588032,9.750993729,39.54606247,-41.22662735,45.6627388,43.48294449,49.05120087,165.943634,166.8691711,194.6963348,171.6006622,179.7513885,202.3200989
209,36.65367889,24.72886467,22.25570488,2.358327627,-9.447961807,13.93243504,11.67574787,39.27324295,-40.10234451,45.0919838,43.62051773,49.32154465,158.9619751,161.3739319,186.6247559,165.8401337,173.8588715,196.5197754
210,7.615787506,27.67591286,6.328292847,-5.270866394,-16.48389435,1.183618665,5.670805931,-40.95888138,45.9628334,50.79264832,46.96977615,44.38158035,169.2911835,193.9842377,163.4215546,166.2442169,172.7789612,198.6941681
211,89.16449738,13.20465469,4.489915848,-8.655817032,-19.53472137,0.592698157,-3.587237597,-18.8763485,-16.80785751,-13.8377943,-17.88216972,-22.80858612,208.7607422,184.1889648,182.5192413,187.1398315,193.0479126,217.7072754
212,8.432097435,29.74058723,7.792267323,-3.710709572,-14.65544224,3.04957366,10.5896244,-38.49504471,49.12892914,53.96477509,50.01813507,46.48864746,159.061615,184.8524628,156.3481293,159.9414368,166.2992249,192.1275787
213,36.00644684,21.72677422,9.161514282,-2.254147291,-12.39952374,12.57886219,-41.78443527,-16.43902016,-16.18595314,-15.16046333,-19.64784622,-17.18721008,157.7207489,166.2677612,166.8255615,171.7195892,179.066452,199.5617218
214,43.86391449,33.70991898,31.20791626,11.36326885,-0.446334302,23.16262627,10.46131992,40.11422729,-40.00704956,45.69192886,43.87416458,49.63677597,166.0624237,167.3878326,194.7506409,171.5943909,179.5882568,202.0456085
215,7.888929367,27.36729813,5.662923336,-5.914450169,-17.07719803,0.677999973,4.960805893,-41.0303421,45.78546906,50.5727272,46.83553314,44.48815155,169.9081879,195.6635284,163.4003143,166.0269775,172.6347961,198.5913239
216,44.4528656,34.10409927,31.71696281,11.70668983,-0.058594584,23.59511566,11.0368433,40.62641525,-39.25489426,46.09626007,44.3555069,50.03084183,167.9941254,169.4505615,196.0175018,173.6381226,181.5800934,204.1323242
217,35.57161331,23.98895073,12.01532936,0.968583584,-8.390978813,15.01293468,-36.27194595,-14.22125626,-14.2454443,-14.0875988,-18.75489998,-16.85127258,140.0501709,150.9126587,150.2934113,154.9566193,162.2962646,184.8531342
218,30.13127708,30.87555885,21.40626335,11.86878109,5.994726658,22.15163994,2.320756912,42.2039299,39.53395462,33.15306473,21.66323662,43.34125137,179.33992,166.074707,164.756012,169.590683,180.7433167,199.0849762
219,35.72515106,24.96105003,22.94804001,3.003036737,-8.622517586,15.12094212,9.67307663,39.6180191,-41.09840775,45.63161469,43.47912979,48.97984314,165.638855,166.6127014,193.8047333,171.5773315,179.7594452,202.1442871
220,7.041604042,30.35531807,7.276868343,-4.325324059,-15.52545547,2.057776213,6.873299599,-41.5941658,45.60374832,50.54642105,47.00278091,44.82365799,168.7302246,195.0349426,161.7818451,164.2455902,171.1011505,197.528717
221,35.7889595,23.30765915,11.14343357,0.090502858,-9.258072853,14.74813938,-35.09611893,-13.28143406,-13.28989697,-12.9730835,-17.60509491,-15.015028,140.7398834,150.4618683,150.1852112,155.1720123,162.7904053,184.4006195
222,33.9800148,22.74115944,19.70196533,0.816323876,-10.97876835,12.54412365,10.1075201,40.63646698,-41.67500687,46.3408165,44.21691513,49.61396027,164.2326965,165.5448608,193.4940338,169.8716278,178.1064758,200.6557159
223,82.68160248,10.21399212,1.392143965,-12.02964115,-23.25056458,-4.211978912,-10.91046333,-20.52817917,-16.87075043,-13.12583065,-16.91016006,-23.75768089,201.3421631,179.8527527,178.5422058,183.0583038,188.3620758,213.992981
224,87.11187744,10.77168751,2.427634716,-10.65782738,-21.65877914,-2.154247761,-4.467188835,-19.26545334,-17.15121078,-13.895751,-17.73319054,-22.52002716,209.7387848,184.1187439,182.4576874,186.9402771,192.7996063,217.7917175
225,82.47097015,9.592524529,0.78204453,-12.58385372,-23.77640533,-4.566308975,-10.46166229,-20.63268089,-16.79997063,-13.05182457,-16.82204247,-23.56587029,200.822052,179.4509583,178.3378296,182.8938599,188.2809143,213.8084564
226,35.72231293,22.19747543,9.846373558,-1.343751907,-11.25656128,12.80772877,-39.07049179,-15.45282269,-15.10625458,-14.41277885,-19.13076019,-17.07260895,146.891037,156.9077148,156.9846344,161.8066254,169.0158234,190.2442169
227,85.33565521,12.86879063,4.0629673,-9.386281013,-20.4699173,-1.027018547,-11.38498688,-20.94830704,-17.13752747,-13.51616287,-17.40100288,-24.81486702,194.8551788,173.076828,172.0498505,177.0564728,182.5045624,207.8119659
228,34.00473404,20.99933052,8.369646072,-3.043400288,-13.13121414,10.75774002,-41.39905548,-17.3545742,-17.28454018,-16.84718895,-21.56219864,-18.95546341,152.0214081,160.3504486,160.1351929,164.6825409,171.6484222,193.6351013
229,34.41375351,21.10583496,8.45092392,-2.966102123,-13.0550518,10.85740566,-41.36884308,-17.24059296,-17.16571236,-16.73054695,-21.50811958,-18.95538521,152.4731903,160.6905823,160.5263367,165.0399323,171.9878082,193.9212952
230,35.72217178,21.5061245,8.852900505,-2.616502285,-12.77314472,11.9337225,-40.16191483,-14.85496521,-14.68189812,-13.57121563,-18.00916672,-15.5281601,158.5847473,167.5855713,167.6832581,172.410965,179.7265015,200.8539429
231,73.85818481,39.37614822,6.614398479,-27.61328888,-59.5173912,3.717398643,7.610246658,-59.78030396,-69.26729584,-58.87416077,-31.80777931,25.63543892,157.4630432,195.5782928,203.0061188,205.8337097,206.0660858,202.921524
232,43.29579544,32.64337158,31.20757484,10.56456184,-0.939287424,23.39054489,10.77202511,40.34635544,-41.0656662,46.02363586,44.00325394,49.53137207,165.9094696,167.8421783,195.9868011,172.7964325,181.1339264,202.9936676
233,76.03650665,40.06599045,8.708001137,-25.09378433,-57.25496292,5.173637867,9.675386429,-57.87944031,-67.26199341,-57.21703339,-30.42250252,27.12052917,161.4102783,198.5404205,206.6568451,209.4893341,209.8179016,207.0215149
234,42.93291855,32.3782196,30.88502312,10.37429333,-1.062320232,23.24029732,10.40137768,40.63060379,-40.45369339,45.83898926,43.86864853,49.50640488,165.5324402,167.0062408,194.229248,171.937149,180.3395844,202.1338043
235,32.59949112,20.23246765,16.82809067,-1.719894052,-13.58206749,10.0550251,11.21529675,41.52813721,-39.50736237,48.10095596,46.02794647,50.77616119,164.3558197,166.8647461,190.2819061,171.0670013,179.1121216,201.6244202
236,8.504412651,29.68551445,8.702297211,-2.822732687,-13.93500233,3.497463465,6.730275154,-40.54880524,46.75286102,51.45949173,47.5095787,44.55519104,167.5160828,190.617157,162.1944427,165.0537567,171.6618347,197.5507813
237,10.49671745,33.58462906,10.35981083,-1.177824259,-12.37162685,4.951973915,2.881997108,-45.35547256,40.65495682,45.78909683,42.77581024,41.05387115,162.5417023,193.3009033,156.6412964,159.2585602,166.1604156,193.3387299
238,83.89450836,10.48979855,1.326535583,-11.99007607,-22.92824745,-2.816973209,-8.562036514,-19.99193764,-16.82419395,-13.27280235,-17.24491501,-23.63011742,203.5206757,183.2858582,182.1646118,186.936264,192.5696106,217.4294128
239,10.78103352,32.28474426,9.421298981,-2.088156462,-13.16560745,4.777805328,2.573064804,-45.55263901,41.36222076,46.50425339,43.15095139,40.88102341,164.844635,194.3555145,158.9909363,161.8567047,168.611145,195.0418243
240,34.07963181,22.85594368,19.75150299,0.994296134,-10.70114326,12.80327225,9.721317291,40.55062485,-41.01255417,46.24126434,44.14947891,49.46505737,164.3482513,165.7381897,192.1968231,170.052948,178.2999268,200.8013916
241,35.01867294,21.56410027,9.026538849,-2.139612436,-12.02306175,12.24777603,-38.74291611,-14.80538368,-14.50866795,-13.90591621,-18.73820686,-16.97915459,144.7826385,155.156311,155.4109039,160.2044983,167.436615,188.3093109
242,76.59257507,39.13197708,6.419722557,-28.28434563,-60.00166321,3.112742901,11.16479874,-57.97861481,-67.39706421,-57.15364075,-29.60900879,28.27993965,165.9361115,203.9807281,212.5835724,215.2476044,213.3658142,208.6766357
243,10.69432354,31.03744888,7.845756054,-3.499088764,-14.56850243,3.029372215,2.498399734,-44.28132248,41.8421936,46.96806717,44.09207153,42.31057358,163.0555725,191.4258728,155.1489258,157.7591858,164.6955719,191.7122498
244,83.82241058,10.57983589,1.329009533,-11.87964821,-22.76795769,-2.632533312,-8.790564537,-19.44965363,-16.59339905,-13.16998005,-17.21902657,-24.17053986,201.8289337,181.2694092,180.0774689,184.8299103,190.4632263,214.9719696
245,87.03645325,11.47590446,3.360875845,-9.889081955,-20.95032501,-2.084843636,-5.147286892,-19.36531639,-17.33373451,-13.9614687,-17.68251801,-21.74106979,210.7504883,183.9738159,181.8828888,186.1689606,191.8770599,217.7594452
246,37.34158707,26.59833908,24.7479763,4.331137657,-7.359918118,16.40907669,9.981566429,40.20150375,-41.97952271,45.78058624,43.45842361,48.82779694,167.3734131,169.4013062,196.6734314,173.8970184,181.9078827,204.5134125
247,35.78726196,23.42227554,11.40042114,0.448329449,-8.832386017,14.96592522,-34.85720062,-13.24044514,-13.34371471,-13.10426712,-17.7312603,-15.09650707,141.9091187,152.4616547,151.9937592,157.0403748,164.6633301,186.4624786
248,34.8237915,23.07349968,20.17364311,1.137660742,-10.43838406,12.93699932,9.610139847,40.61071777,-40.85000992,46.54177475,44.3704834,49.43378067,164.2932739,165.7999878,190.9657898,170.1064453,178.4099884,200.7255554
249,11.64783287,31.43784332,9.425919533,-2.028555393,-13.01443195,5.056966305,2.923153877,-44.71873474,41.5098877,46.88959122,43.45762253,40.82474518,163.0511932,192.376236,158.352066,161.8622589,168.3918304,194.638443
250,10.92835617,32.3104744,9.433760643,-2.089993238,-13.31988907,4.18419981,2.756281853,-44.99307251,41.18225479,46.36765671,43.47558212,41.74193192,162.1873169,192.371109,155.2300873,157.8224792,164.6447754,191.9055786
251,10.64516544,31.24181366,8.276758194,-3.137056589,-14.27276516,3.108520985,1.915753365,-45.38298035,40.85627365,46.00708008,43.16923904,41.55924606,162.6403198,192.5785065,154.8495483,157.3425598,164.1974945,191.5473328
252,73.63541412,39.28256226,6.641954422,-27.45989037,-59.20804214,3.689157963,7.507411957,-60.08978271,-69.49528503,-59.05662918,-32.2420311,25.36943054,157.4288025,195.9656982,202.9311829,205.2645874,205.7140503,203.0947113
253,34.98236465,22.88460732,19.71492577,0.557963431,-11.27586746,11.74726868,12.83454037,42.23694992,-38.41542435,47.70198822,45.94599152,51.1306572,163.1986389,165.738205,189.9123688,169.6347046,177.3454742,200.2052155
254,90.60992432,15.06221771,6.690267563,-6.51761961,-17.41760826,2.079201698,-5.285130024,-19.22919655,-17.38368416,-14.36615562,-18.55753136,-23.44436646,209.022049,184.3583069,182.5669403,186.9172363,192.4192505,217.7164154
255,88.41281128,12.75722122,4.247704029,-8.920706749,-19.73155975,0.157022983,-5.989584923,-18.74321938,-16.86460114,-13.83336544,-17.89725494,-23.26961517,206.36586,182.313736,180.665329,185.4954071,191.3414764,216.3497009
256,35.63594437,21.03517914,8.46279335,-2.951884508,-13.03872013,11.77373981,-41.10476303,-15.83615208,-15.67003536,-14.63020229,-19.05429268,-16.59256744,156.6729279,165.7771149,166.0164337,170.868515,178.2674103,199.2917328
257,13.20653057,32.27610779,10.01063824,-1.355732799,-12.25034237,6.417871952,2.897474289,-44.3049736,42.16201782,47.46057129,44.05318832,40.81745148,161.3573303,189.3274841,157.3461456,161.1282349,167.7297821,193.5054321
258,88.01602173,12.66888905,4.088378429,-9.081864357,-19.93874168,0.035184968,-7.527876854,-18.86630249,-16.92424393,-13.79799366,-17.81010246,-23.45392227,204.8302612,182.9010468,181.2939148,186.2775116,192.0913239,216.8096619
259,35.02477646,21.78381348,9.349634171,-1.884922028,-11.79259872,12.4923315,-38.08892059,-14.81936264,-14.49493122,-13.89017868,-18.70663071,-16.90760231,144.5845642,155.1268158,155.4021301,160.2875366,167.4792633,188.4750519
260,34.37565231,23.60428619,21.07373047,1.612894416,-10.05769157,13.56892109,9.541275978,40.89933777,-41.36914825,46.5164299,44.18527222,49.20443344,167.7636719,168.9835052,195.2970276,173.4143066,181.5940247,204.1319122
261,84.30072784,10.70321655,1.482907414,-11.65494347,-22.53146744,-2.401168585,-8.628302574,-19.36148262,-16.40804291,-13.00283718,-17.05610657,-23.97186279,202.5023804,182.080719,180.9619751,185.6604919,191.2163849,215.7427063
262,30.24476624,29.51563835,19.57677269,9.765336037,3.41297102,21.24020386,1.798202515,41.49210739,37.02172089,33.14350891,23.74758339,43.83244705,179.6131439,166.0199127,164.9607544,168.9655914,180.1226807,198.7747498
263,34.05273438,22.48253059,19.14319038,0.408836871,-11.4375515,12.01767826,10.65481186,40.70611191,-40.57389832,46.5857811,44.52399826,50.00146484,165.4490204,167.2592621,193.6547546,171.5890656,179.6376038,202.2655945
264,10.861866,33.29439163,10.26001072,-1.268309712,-12.46450806,4.888310909,3.005010605,-44.76321793,41.0437088,46.20215225,43.222229,41.44426346,162.2750244,192.2712708,156.0996246,158.7586365,165.6277771,192.7537231
265,35.1759758,21.14179039,8.527698517,-2.949534655,-13.08192825,11.76952744,-41.37443924,-16.19985008,-16.06365395,-15.05367279,-19.52479362,-16.84639359,158.2277527,167.3803864,167.6553802,172.542038,179.9560242,200.7332306
266,36.0348053,21.7840538,9.391906738,-1.809394479,-11.62877178,12.61067104,-39.92297745,-16.32262421,-15.98524857,-15.23813915,-19.82851982,-17.60307121,146.7381744,156.6526794,156.7650604,161.6957092,169.0469055,190.3597412
267,84.51509857,11.14678478,2.253451824,-11.11910057,-22.1658268,-2.467325926,-11.58865643,-21.73829079,-18.1096096,-14.36863518,-18.20896339,-24.89767456,198.9704895,177.1251068,176.1251526,181.0189819,186.5067444,211.6299438
268,10.41872692,29.93156624,8.284677505,-3.059034348,-13.93175888,3.885416031,6.549781799,-41.31389618,46.41492081,51.17209625,47.43565369,43.74456787,162.8357391,187.3689728,158.8295135,162.2397614,168.6648254,194.5980225
269,30.13519096,29.39641762,19.73959541,9.769221306,5.514194012,21.3971138,1.479582787,41.1024437,36.89934158,32.71221161,20.64482117,43.5483284,178.34375,164.753952,163.8221436,167.915451,179.2594147,197.6622009
270,71.82009125,37.05142212,5.214334488,-28.50894928,-59.84696198,2.193535805,8.122937202,-57.60658646,-67.4449234,-57.12473297,-30.58582687,26.5087738,158.8697205,194.937912,203.3119354,205.3355103,205.0044556,204.4094086
271,35.08243179,20.6544857,8.054081917,-3.461232662,-13.62912178,11.19230747,-39.80481339,-14.72277737,-14.5189333,-13.35711098,-17.80774307,-15.36312962,158.10112,167.1982117,167.4978943,172.2951813,179.6356201,200.4487457
272,73.10971832,38.19563675,5.66009903,-28.45634651,-60.17305756,2.931798697,8.907304764,-58.24016571,-67.76165771,-57.44617081,-30.32226181,26.97105217,159.4829559,197.2946472,204.9527283,207.9180298,207.6903381,204.7447968
273,10.74576664,31.79673576,9.236241341,-2.208162546,-13.04316998,5.318431377,9.013397217,-40.04555893,47.40094376,52.28964996,48.41153336,44.82378387,159.3534393,186.7702942,157.0518951,160.7701569,167.2438354,192.8920746
274,33.60959625,22.43162727,10.35386467,-0.740376234,-10.04796696,13.89861393,-35.38605118,-14.32349205,-14.36642456,-14.25968552,-18.98986244,-16.94436264,136.6353912,147.8364258,147.5100403,152.5015564,159.9699554,182.0279694
275,9.4308815,29.78236008,7.958701134,-3.442532539,-14.37245655,3.414571047,7.300318718,-40.71812057,46.8074646,51.48446274,47.59334946,44.31387329,161.9866638,187.2181091,157.8279724,161.0855713,167.4746857,193.257782
276,9.46975708,30.19311905,7.922841549,-3.532615185,-14.41879368,3.576246023,9.319662094,-39.01368713,48.51436996,53.37318039,49.66275406,46.383461,163.0381927,188.3071136,158.5705566,162.0610657,168.6508636,194.6056671
277,76.0134964,40.29325104,8.669900894,-25.15342522,-57.32381058,5.174415112,9.545333862,-58.05927658,-67.44004059,-57.45298004,-30.57019424,27.07020187,161.7211456,198.8727112,206.9224854,210.1301117,210.5610657,207.1266937
278,37.65773392,26.31193352,24.89995766,4.201125145,-7.352462292,16.62188911,9.28747654,39.45493317,-42.12626266,45.63855743,43.3807106,48.66824722,166.9519958,169.078064,196.2053986,173.7971649,181.9607849,204.1950684
279,8.852352142,26.31118774,5.252403736,-6.304910183,-17.3319664,0.612270892,6.368684769,-39.41781235,46.29312897,51.20488739,47.62893677,44.54408264,164.6028748,191.1677856,161.0783997,164.3751831,170.5482635,196.3166504
280,36.40656281,22.62501717,10.18219185,-1.042032599,-10.83571625,13.00800419,-40.08324432,-16.51696968,-16.24657249,-15.64973164,-20.38791275,-18.13636017,145.8984528,155.6061707,155.4580688,160.1646881,167.4481506,189.2749786
281,33.52717972,22.09916306,10.00206375,-1.032908082,-10.26554966,13.88915157,-35.51251984,-14.16920185,-14.22881222,-14.12202835,-18.92085457,-17.12565041,137.0421295,148.6270599,148.4573822,153.5703278,161.1166077,182.9475403
282,36.02334213,21.64691544,9.25906086,-1.944580317,-11.7700119,12.48963928,-39.82140732,-16.21207619,-15.84919357,-15.11529064,-19.814291,-17.91326904,146.9548798,157.1974487,157.3121796,162.2321777,169.5194244,190.8695374
283,31.05422974,30.16353989,21.62577629,11.41346169,5.068927765,22.1810112,4.720001221,44.08896255,40.81801987,34.1198616,26.07269859,47.10621262,187.8299866,172.959671,172.2970428,177.0881195,187.6923981,205.8905334
284,11.32958317,29.294487,7.718149185,-3.652919769,-14.55254459,3.246156454,2.054998398,-43.2438736,42.26504898,47.43928528,44.23435593,42.10059738,165.6348572,191.9845428,158.8262787,161.8938141,168.5145874,194.7088928
285,9.787327766,31.26215553,8.474070549,-2.944504499,-13.82195854,4.244513512,9.696410179,-39.3333931,48.26839828,53.15772629,49.26721954,45.83696747,160.8268433,187.7828674,158.0199432,161.6998138,168.1634674,193.9681244
286,9.196101189,29.79474258,7.813079357,-3.670454264,-14.62098122,3.156298876,9.667390823,-38.74123001,48.58822632,53.48076248,49.72726059,46.37812424,160.6603088,186.4893951,156.8770447,160.3447418,166.7568054,192.7257843
287,82.91074371,9.483454704,0.655501366,-12.64954567,-23.80324173,-4.507858753,-10.02836132,-20.59904099,-17.03081512,-13.4715929,-17.29710388,-23.9000206,202.6345062,181.5209045,180.1822662,184.5882263,190.0284271,215.4043427
288,35.15620041,20.77016068,8.156824112,-3.356655836,-13.55464554,11.20662785,-39.74529648,-14.66216183,-14.43738079,-13.3389616,-17.79052544,-15.27395725,158.1030121,167.0345612,167.2787018,172.0602722,179.3750305,200.2471466
289,30.3340168,30.07508659,20.62450981,10.58944035,4.509536743,21.40633965,4.214269638,43.76712799,40.26748657,34.07430649,24.48902702,45.80966949,181.6174011,167.9108124,166.9036407,171.5943604,182.5873566,200.9168701
290,9.114251137,31.06383514,8.101770401,-3.292504311,-14.04660511,4.258671761,10.3902235,-39.01745605,48.67804337,53.54890823,49.56590652,46.25401306,159.632309,186.1976776,156.4604034,160.159256,166.7836914,192.2069397
291,35.05886459,20.87372208,8.176634789,-3.294198275,-13.47912788,11.2563858,-39.73612595,-14.35222912,-14.17672729,-13.14071465,-17.69890022,-15.4267807,157.6072388,166.7166595,166.9262085,171.7227325,179.0573273,199.8928986
292,36.75457001,22.57217407,9.853018761,-1.536316991,-11.5513401,13.39242458,-42.1504631,-17.65924454,-17.55385017,-16.7819252,-21.45115852,-18.91588593,155.4493103,163.9370728,164.3894348,169.3612671,176.7536469,197.5614777
293,12.11781025,30.43414688,9.040255547,-2.330883741,-13.28712368,4.531652451,3.48052597,-43.0004425,42.44912338,47.91204071,44.70345306,42.13803482,161.5488586,189.433197,156.3201904,159.6578064,166.0852356,192.3455658
294,34.74365234,22.72662354,19.452631,0.264845788,-11.6017704,11.29939175,12.78020287,41.55348969,-38.73764038,47.4169426,45.6147995,50.95925522,162.1285858,164.5220337,189.263504,168.5890961,176.2106323,199.0646973
295,34.1855278,23.60694504,21.32480621,1.527331233,-10.14254856,13.428442,9.76330471,41.04405594,-41.64538193,46.32863998,43.9272995,49.09502411,167.5522461,168.8659973,195.6766815,173.3169403,181.4068146,204.1149139
296,33.82499313,22.0490799,9.921741486,-1.104556799,-10.46749401,13.64861965,-35.14025116,-13.96692753,-14.00054741,-13.76050186,-18.47589111,-16.32978439,137.0378418,148.7428894,148.6602936,153.845459,161.3742218,182.7787018
297,10.29079437,33.82933807,10.03691578,-1.483357668,-12.59942436,5.268874168,3.011117935,-45.47921753,40.63717651,45.7760849,42.7810173,40.90877533,162.0115509,193.2585449,156.8722687,159.7145233,166.814621,193.5346527
298,82.75605011,10.23210144,1.137631655,-12.27495575,-23.29013443,-3.506916523,-9.267627716,-19.61593437,-16.37978935,-12.75452518,-16.67731094,-23.72429276,200.5332489,180.4926605,179.3727112,184.2350769,189.6541901,214.6304016
299,31.3900528,29.00502396,19.35585213,9.437961578,4.62662077,20.54243088,8.478907585,47.36154556,41.71892548,37.62938309,29.34894562,52.10786438,193.7832642,179.0340881,178.9839172,183.1528168,192.9333038,211.4650879
300,35.22812271,23.42732239,11.38996887,0.343424797,-8.965889931,14.76934242,-36.29655075,-14.34385872,-14.40522003,-14.18101788,-18.81712341,-16.60411263,139.6157837,150.2251587,149.8102722,154.665802,162.1613464,184.2327728
301,76.06519318,38.71093369,6.351845741,-28.29909134,-60.56560898,3.14471674,9.911646843,-58.98502731,-68.49214935,-58.18193436,-30.43993568,27.15144157,163.9219513,200.6020966,209.4286652,212.9533844,212.1442261,207.7354431
302,35.84510803,21.58956909,9.195199966,-2.018037558,-11.84088326,12.41454601,-39.85640717,-16.20816422,-15.86338329,-15.14960098,-19.8597908,-17.91564178,147.0780334,157.3028717,157.4170227,162.3152618,169.6113281,190.9605255
303,37.3604393,26.57942963,22.57194138,4.116634369,-7.174272537,15.28971386,12.09882832,41.30080795,-39.08909988,43.98923111,43.77718353,47.65893555,156.0221863,160.1852875,178.998764,163.6157227,171.3817291,195.0349579
304,36.90205383,25.74985123,21.67122841,3.493247747,-7.473567486,15.13498402,12.52166176,42.27259445,-38.083992,44.35437393,44.37254333,48.15505981,156.0658112,159.9159698,178.1663361,163.7151337,171.4829102,194.9976807
305,36.67431641,24.58134079,22.19045639,2.241849422,-9.559923172,13.95655441,11.66354942,39.77612305,-40.03071594,45.72006226,44.04504776,49.57593155,160.0087585,162.3757324,187.8669739,166.9180756,174.8965454,197.2754517
306,89.94165039,15.25956535,7.020533085,-6.347530842,-17.40979576,1.480611086,-5.131626129,-19.67294312,-17.4377346,-14.1284399,-17.85645485,-21.57807159,210.1949463,182.4536896,180.1634521,184.3514404,189.9425507,216.0406799
307,90.28290558,14.51636314,6.162473679,-7.003969669,-17.88115883,1.264822125,-5.788434029,-19.06674576,-16.95566368,-14.02352715,-18.29512215,-23.6683979,209.6800842,183.4131165,181.6003265,185.7645721,191.2485962,216.7264862
308,9.901988983,30.00684738,8.261749268,-3.133860826,-14.06444931,3.73738718,6.731701851,-41.34548569,46.59068298,51.21167374,47.31381226,43.77656555,162.1806183,187.3114777,158.2500763,161.5176239,167.8735809,193.7496338
309,14.36689091,33.12046051,10.46630669,-0.908919334,-11.7401247,7.039480686,2.169686317,-44.2466011,42.21975327,47.29047012,43.79311371,40.71883011,162.4285431,190.1026306,158.1836548,161.7728271,168.3978882,193.8529663
310,31.99593735,30.35897636,21.25106621,11.18973351,4.745449066,22.32767677,4.609251976,43.79459763,39.91241074,34.65561295,26.78671074,47.33030701,188.6728821,173.7567749,173.1776276,177.7300873,188.3941345,206.5354462
311,74.15645599,40.43464661,8.570311546,-25.16895485,-56.63970184,5.155801773,7.03093338,-59.62428665,-69.49911499,-59.17147446,-32.78203583,24.84814835,155.7626648,193.8778076,201.9086609,203.4794006,203.3464661,202.1713409
312,34.0520668,20.2526741,7.796597958,-3.355974197,-13.14795208,11.02247524,-39.97200775,-16.36624527,-16.11821365,-15.3073473,-19.89315224,-17.56543159,147.7598267,157.7342987,157.8648376,162.9172058,170.3358307,191.2477417
313,35.45581055,21.0797863,8.577681541,-2.849096537,-12.95741272,11.80368614,-41.69321823,-16.43571663,-16.2899971,-15.25878143,-19.63585663,-16.897192,156.6529083,165.6269989,165.8054504,170.6089783,177.9740143,199.0584106
314,90.98913574,14.84608746,6.567074776,-6.614137173,-17.53323936,2.011283875,-4.376494884,-18.84815407,-16.83806229,-13.65148354,-17.76235008,-22.80642128,209.7394562,185.7583923,184.1344604,188.4499207,194.1418915,219.1825867
315,10.56814384,31.33501244,7.93174839,-3.446516514,-14.54284096,3.164968729,2.167872429,-44.7947464,41.15621948,46.30918121,43.49472046,41.91000748,162.8562164,192.1425018,155.1428528,157.7656403,164.6997833,191.7313995
316,36.45365524,22.98810005,20.47092056,1.050107718,-10.32802868,13.18386459,13.09886646,41.60501099,-37.38558197,45.76166916,44.71767807,50.41485596,158.4437714,161.6716003,183.8044434,166.0205078,174.1336365,196.1782227
317,32.58573151,30.12112427,20.6040554,10.74303722,6.058398247,22.37476349,6.479755402,45.47544861,41.0457077,36.46973419,27.59311485,49.59089279,189.854599,175.3223114,175.1903381,179.8944702,189.9493561,208.1092224
318,36.396698,22.02287292,9.580377579,-1.602123618,-11.47331619,12.57776451,-39.88187027,-16.14121246,-15.75675869,-15.04965782,-19.7627182,-17.95478821,147.3513184,157.5764771,157.5972595,162.4628448,169.6460114,191.0570831
319,30.17418289,29.41036797,19.76134682,9.810108185,5.525963783,21.36572075,1.543113708,41.14464188,36.87301254,32.72241211,20.69470978,43.60345078,178.5150452,164.8880005,163.9258575,168.0066376,179.3383484,197.7732697
320,75.03253174,40.47307587,8.804481506,-25.08697128,-57.0994339,5.32382822,7.629583359,-59.58564758,-69.28315735,-59.02294922,-32.27259064,25.44260979,158.1926117,195.7993927,203.804718,206.3280945,206.7567139,204.2451019
321,42.01586533,32.12630081,30.64970779,9.912516594,-1.554517746,22.65149307,10.71804237,40.92547226,-40.28888321,46.19252014,44.10855484,49.22621155,164.1126404,166.2014771,191.6736298,170.8708954,179.2729797,201.3415527
322,35.79419708,21.35933113,8.670689583,-2.745251656,-12.86580086,12.08835888,-41.11932373,-15.4793539,-15.37511539,-14.38594532,-18.94839096,-16.59895515,157.3559723,166.8085175,167.1776886,172.0407562,179.470108,200.1380463
323,77.14172363,39.47177124,7.23989439,-27.40371323,-59.89971924,3.799093723,10.08026791,-59.20603943,-68.6092453,-58.36158752,-30.72479057,27.02738571,164.8347778,201.6723022,210.0091858,213.4280701,212.8977051,208.1999969
324,37.81185532,26.26607323,13.28778648,2.203999996,-7.46364975,16.65930939,-37.70373154,-11.61481571,-11.83581543,-11.37512016,-16.42420959,-14.36861706,148.9160919,157.5502319,157.7238922,162.3273315,169.4499969,190.1701508
325,90.80850983,14.8922472,6.528887272,-6.668998241,-17.58501625,1.815716743,-5.486507893,-19.0134449,-16.978508,-13.8988781,-18.0982399,-23.59799767,210.0081635,184.4793243,182.8047943,187.129425,192.6702728,217.8812256
326,8.551896095,29.78045082,7.808177948,-3.612384796,-14.55094337,3.178757668,11.0687809,-38.67921448,49.40459061,54.37197876,50.3795166,46.50523376,157.3296356,183.0069122,154.881546,158.6553345,164.9796295,190.7302094
327,14.2851553,32.52738571,11.2188673,-0.127030373,-11.14533043,7.22302866,3.384030342,-43.70264816,42.91427994,48.22128296,44.76299667,41.33055115,160.8044586,188.8726196,156.833374,160.2465363,166.7210388,192.4874573
328,83.30190277,10.4339962,1.777258158,-11.60863781,-22.70508194,-3.351764917,-11.48781586,-21.20654106,-17.2774868,-13.51333523,-17.3118,-24.58442688,196.1820221,173.7935638,173.0464325,178.1242371,183.6055298,209.0367584
329,12.46152878,31.05236053,9.38510704,-1.994728804,-12.98389149,5.331671715,3.124129295,-43.67769623,41.80234528,47.36027145,44.11096954,41.37649918,161.3035126,189.4269714,156.5031738,160.2321625,166.7741547,192.8432007
330,14.17765427,32.10204697,10.25758648,-1.099006653,-12.05994034,6.673797131,3.405276299,-42.98919296,42.96774673,48.30632401,44.96862793,41.5764389,159.6525421,186.9076233,156.0433807,159.8410034,166.2931519,191.8882751
331,12.07408237,31.14212036,9.054152489,-2.336550236,-13.29323483,4.921683311,2.339906693,-45.08119202,41.22889709,46.67782974,43.35466003,40.71971512,162.3892059,191.6743011,156.9998016,160.5335236,167.1717682,193.4265594
332,34.07924271,22.59477425,18.25832748,0.43869248,-11.62742996,11.26077557,11.16308022,40.33847809,-39.84088135,46.62364197,44.87801743,50.52682114,164.7278595,166.3069916,192.4261322,170.3513489,178.2210846,201.4069824
333,84.11624146,10.58326244,1.760583162,-11.62869072,-22.67147255,-2.86921382,-10.99019623,-21.84527206,-18.08341599,-14.23787785,-18.09917068,-24.84690666,198.0048981,176.8214417,176.0877686,181.0425415,186.572998,211.6004639
334,30.52634239,30.11643791,20.93722153,10.78845406,4.569392681,21.47565651,3.31430912,42.94708633,39.44573975,32.03314972,22.85879898,44.63240051,180.2010193,166.8325958,165.7112427,170.4911957,181.0958862,199.7619324
335,10.41054153,33.76569748,10.03022003,-1.486636043,-12.65237141,5.379481792,3.701615334,-44.26221466,41.73441315,46.86958313,43.80124283,41.85818863,163.2219543,192.7824554,157.9086609,160.7669983,167.8103333,194.2376251
336,83.58717346,43.21739578,9.519886971,-25.11870575,-55.53751755,6.316757679,12.60229111,-59.19373703,-68.03357697,-57.344841,-31.01121712,27.91428757,170.7878571,209.9733582,216.5146637,215.7886963,212.946579,209.3686981
337,32.7496109,19.96888733,7.59816885,-3.675884962,-13.67778969,10.10187531,-40.07003021,-16.16985893,-15.92012215,-15.14112091,-19.6568737,-17.19927025,149.0645447,157.9954071,157.851593,162.621933,169.7773438,191.3797302
338,35.54989624,23.89027786,11.87332249,0.825817108,-8.505236626,15.072855,-36.02173996,-13.93388081,-14.00080109,-13.85564613,-18.56123352,-16.61483574,139.9305878,150.8290253,150.3228455,155.0535583,162.4535828,184.7707825
339,42.08190918,32.12965393,30.67459297,9.892772675,-1.584378958,22.65022087,10.72841835,40.9200325,-40.29496384,46.2485466,44.13986206,49.25103378,164.1414642,166.2601013,191.7687378,170.9556732,179.3456116,201.3899078
340,35.23176193,21.68822861,9.229842186,-1.972698689,-11.89485931,12.25817394,-38.54760742,-14.85892391,-14.54912472,-13.90693665,-18.7087841,-16.72616386,146.2078552,156.4138336,156.5554504,161.3526764,168.558075,189.561142
341,33.37127304,20.32057762,7.634408951,-3.737175941,-13.9427824,10.55516338,-40.88319016,-16.41915703,-16.18501472,-15.49032688,-20.19042206,-18.44881248,151.0647888,160.3153229,160.4815826,165.3501892,172.458313,193.7339935
342,38.04567719,23.57019806,11.00057411,-0.411720812,-10.28386021,14.27777767,-41.69312286,-17.60255241,-17.57660866,-16.82543373,-21.36246872,-17.9182663,157.0487976,165.6387482,165.6845856,170.4355316,177.8459015,199.0442352
343,9.518217087,29.5694313,7.824696064,-3.594230413,-14.48267555,3.269816399,7.389532089,-40.47428131,46.98688507,51.7452507,47.88797379,44.53597641,161.3781891,186.8826447,157.3302917,160.6578064,167.0439911,192.9101257
344,88.45838165,12.65151787,4.301046848,-8.890047073,-19.72331238,0.094770521,-6.846898556,-18.99494934,-17.23343468,-14.106287,-18.13467979,-23.51693535,206.5278015,182.8205109,181.2939758,186.2693939,192.0978699,216.945694
345,33.73258209,21.77865982,18.18618584,-0.378279448,-12.3637619,10.83548355,11.14228058,40.37509918,-39.81137466,47.0170784,45.18264771,50.59949112,164.4082184,166.3300476,191.6808777,170.3908386,178.3009338,201.20578
346,39.35775375,28.33688545,26.50174713,6.351459503,-5.320689201,18.56251526,10.63378334,40.67013931,-41.04273224,46.14238358,43.9948082,49.80805588,164.9255829,166.0961456,194.654007,171.1338806,179.2079773,201.4520111
347,40.14662933,25.94464111,13.43033314,2.435551405,-7.09715271,16.79438019,-37.53481293,-9.63627243,-10.0770998,-9.046457291,-13.50524139,-10.59117794,145.282196,150.2369537,149.9335022,154.5350037,162.1194916,183.8797302
348,36.80408096,21.37096214,8.878850937,-2.527091503,-12.6634264,13.14658165,-40.03058624,-14.3075819,-13.8864851,-12.37162399,-16.63260078,-14.49711704,156.530426,165.5697174,166.6803894,171.8593445,179.3837738,199.0423431
349,34.76096344,22.46512985,19.02649879,0.005393505,-12.01071072,11.15360069,13.01546764,41.40623856,-38.48081589,47.61936569,45.90839005,51.53889084,162.3116913,164.2183228,189.8386078,168.4562988,176.0646057,198.7839661
350,36.19781113,21.95285606,9.370450974,-2.073616982,-12.29494858,12.52594852,-41.7160759,-16.18575096,-15.99256802,-14.94745159,-19.40552139,-16.84076118,156.9562531,165.9168091,166.2992096,171.1375427,178.4706726,199.2217865
351,76.41005707,39.43859863,7.654585361,-26.25169373,-58.38166046,4.510633945,9.544042587,-58.74314117,-67.79333496,-57.43589783,-30.38716125,27.2872982,163.0208282,200.5739441,207.8731689,210.3318024,210.7554169,207.4922943
352,10.81855965,31.17754936,8.124207497,-3.295698643,-14.43849277,3.587134361,1.70728302,-45.54828262,41.12517929,46.22314453,43.30170822,41.55239105,163.8231964,193.5416107,156.0819244,158.626236,165.6139984,192.3669891
353,8.405527115,29.75426674,7.923735619,-3.483376741,-14.43553257,3.191205502,11.11738682,-38.53696442,49.48897934,54.44056702,50.4330101,46.56596756,157.2816162,183.0780487,154.9811249,158.718811,165.0194855,190.8269043
354,35.95902634,23.5555439,11.53449249,0.573655128,-8.715090752,15.02088547,-34.90254593,-13.34654331,-13.43851566,-13.19606876,-17.83576202,-15.12886429,142.2026672,152.6340027,152.1163025,157.1104584,164.7238159,186.6156311
355,8.60412693,29.47826004,7.557649136,-3.886500359,-14.81385136,3.049408436,10.90292454,-38.48011398,49.52904892,54.45605469,50.48058319,46.56082153,157.6498871,182.845993,155.3159943,159.1348877,165.4936218,191.1273956
356,43.83013916,33.70739365,31.2273407,11.35238552,-0.456976414,23.13993645,10.43088722,40.16474915,-40.06457901,45.68858337,43.86230087,49.61211395,165.9866028,167.2893524,194.6589508,171.4650879,179.4621735,201.9487305
357,40.41394424,29.52712822,28.2572937,7.332725525,-4.246086597,19.9806385,10.51091194,40.05886841,-41.02457428,46.06162262,43.88737488,49.70344543,165.445816,167.193512,195.6217957,172.1325989,180.3794708,202.4332275
358,33.84267807,22.46841431,18.50438499,0.385397315,-11.5507164,11.56829643,10.79920673,39.889328,-39.95508957,46.15652847,44.53519058,50.3020668,164.0250397,165.3336639,191.8874664,169.6390991,177.6940765,200.6744385
359,8.95533371,30.23868561,8.292647362,-3.154605865,-14.08639812,3.563629389,10.3235817,-39.21499252,48.92894363,53.75758743,49.78266525,46.33441162,158.7412567,185.431778,155.2604065,158.7005615,165.0655518,191.1127777
360,35.24420929,20.93403244,8.188093185,-3.22970438,-13.29003334,11.64376831,-39.84826279,-14.67495823,-14.58374882,-13.54534817,-18.07608414,-15.63978386,158.0427704,167.222229,167.4997253,172.4081268,179.871048,200.5401459
361,14.12178421,32.958004,10.42189693,-0.943842649,-11.7779398,6.988589764,2.2929039,-44.25527573,42.22809982,47.33410263,43.85945892,40.74335098,162.1808929,189.9324341,158.137558,161.7708435,168.4116211,193.8906403
362,34.86781693,21.88376617,9.494098663,-1.744409442,-11.62634754,12.53652287,-37.73229599,-14.61065483,-14.32234192,-13.81914997,-18.66641235,-16.88490677,144.4657745,154.9747162,155.1166687,159.9074402,167.0543518,188.3703156
363,35.5962677,21.52109146,9.097418785,-2.099941492,-11.94313812,12.23331165,-39.73675919,-16.05791092,-15.68836498,-14.99667549,-19.737463,-17.80750084,146.9970551,157.3189697,157.4396515,162.3146362,169.6007843,190.8092957
364,36.57744598,25.35679817,23.70552254,3.390315771,-8.201849937,15.77316666,9.97673893,40.11792374,-41.2757988,45.94397736,43.79701614,49.40472794,165.5407867,166.8033905,194.680481,171.5811615,179.8952637,202.1854401
365,87.8353653,12.32285309,3.908318281,-9.201889992,-20.0633316,-0.575667381,-8.288567543,-19.26790619,-17.19593811,-14.0663271,-18.05186272,-23.92746925,206.004776,181.5912323,179.95755,184.6826782,190.324234,215.5999298
366,35.13178635,21.13834381,8.46681881,-2.986929655,-13.16305923,11.32704449,-39.72480011,-14.28982639,-14.1067915,-13.07716751,-17.61565781,-15.48736095,157.6204529,166.7904205,166.8396454,171.5474548,178.8124237,199.9387665
367,76.24641418,40.00974274,7.891901016,-26.10809326,-58.07274628,4.827857018,10.19276524,-57.6216507,-66.91565704,-56.77787399,-29.59462357,27.78072739,163.5910339,201.3595123,209.4842224,212.9245911,212.8905487,208.5737762
368,37.27124023,23.03082657,10.28395367,-1.07822454,-11.01345634,14.16639805,-39.60484314,-13.85621929,-13.8796978,-12.93616867,-17.53213692,-15.28643894,154.0792542,163.152771,163.6395264,168.5282593,175.9255371,196.4999084
369,76.15533447,38.68551636,6.198092937,-28.4039135,-60.43868637,3.030400515,9.959339142,-58.84271622,-68.26887512,-58.01931,-30.35419083,27.25710869,164.4964752,201.6756287,210.4214478,213.7617035,212.6219177,208.065567
370,11.06784821,33.13076401,9.894809723,-1.509808421,-12.53595352,5.192937851,2.736413956,-44.47410965,42.57553482,47.43728256,44.09282303,42.52708817,170.0931854,196.9801483,160.8417053,162.963974,170.0370026,196.4059906
371,11.1851635,31.64105415,8.44066906,-2.926974058,-14.01320648,3.552582502,2.066139221,-44.67049408,41.69669342,46.65607452,43.58726883,41.86660767,164.0433655,192.7887878,156.1296539,158.5860138,165.3657379,192.2271881
372,35.57042313,21.57028961,8.920937538,-2.585753918,-12.7844286,11.98745537,-40.03796768,-14.76344872,-14.63480091,-13.54597664,-18.02010536,-15.38093758,159.2984619,168.4272461,168.5888062,173.3604736,180.6717072,201.5049591
373,10.64049435,32.23455811,9.285268784,-2.21889782,-13.4709549,4.366384506,3.095004082,-44.62050247,41.36370468,46.58359528,43.76446152,41.96844864,160.9839325,191.3255463,154.3781586,157.0529175,164.0188599,190.977066
374,34.89056396,21.98435974,9.623744965,-1.604916453,-11.50563431,12.54030323,-37.89868546,-14.696311,-14.37902164,-13.83932877,-18.65657234,-16.86536598,144.7617188,155.1746521,155.2424774,160.0004883,167.1297913,188.5234528
375,32.75124359,20.36834908,7.732793331,-3.648102283,-13.92191505,10.22450733,-40.12421036,-15.61370277,-15.26014805,-14.53501225,-19.29080772,-17.75837135,150.191925,159.3437958,159.3478699,164.0658112,171.0033264,192.4712219
376,14.4135685,32.4671402,10.70751286,-0.676030815,-11.65130424,6.96113205,3.41283989,-42.95836258,43.08197021,48.3660965,44.97587204,41.61210632,160.1713104,187.2566833,156.4176025,160.116745,166.5459442,192.2050018
377,33.11793518,20.87204552,8.320502281,-3.081348896,-13.34773731,10.50330448,-39.80883408,-16.08936691,-15.74441814,-15.1140728,-19.86091232,-18.16711426,149.3534698,158.7967529,158.6105347,163.3201141,170.1574707,191.9580688
378,73.62167358,39.35086441,6.627839565,-27.5022831,-59.28773499,3.692956924,7.599107742,-60.05770111,-69.53160095,-59.12943268,-32.19939804,25.41016006,157.2139587,195.5503998,202.6116791,205.1063385,205.4263916,202.8294067
379,45.06365585,34.59732819,32.45959473,12.15743542,0.321890712,23.91077805,11.06990051,40.32361221,-38.81758499,45.93504715,44.26861572,50.07307053,168.2535706,169.4332123,195.76651,173.7253876,181.5608215,204.2626648
380,43.99375153,33.43320465,32.59467316,11.35658073,-0.154816687,24.03676224,10.53990555,40.01885223,-40.70438766,45.53058624,43.67669678,49.50545502,166.3500366,167.6365051,196.3557434,172.6937561,180.9067688,203.0102997
381,35.40091705,21.19453621,8.635694504,-2.787724972,-12.96455765,11.95693398,-41.8269577,-16.30821419,-16.0650692,-14.98115635,-19.33640099,-17.00664902,157.2823334,166.2998657,166.5545197,171.3964539,178.8007355,199.7948151
382,10.51869965,33.28645706,10.17915821,-1.265887618,-12.35388184,5.161713123,2.998017311,-44.4413147,42.40071106,47.31755066,43.99594498,42.44139481,169.3116608,196.8466187,160.5593719,162.664444,169.6573639,196.2316742
383,81.20071411,42.02801895,9.084704399,-25.18369102,-55.73425674,5.662954807,11.65628529,-58.93297958,-68.0619278,-58.00153732,-31.30625153,27.47047997,167.2259674,206.7762451,214.5257874,215.3371887,211.9953918,208.0715179
384,75.20969391,39.18102646,7.518298149,-26.55539894,-58.62350464,4.460559845,10.36843872,-57.61823654,-67.02373505,-56.58493423,-29.25574875,28.02118683,162.3130493,200.5814514,209.201004,212.1460724,212.3672333,208.2609711
385,9.053451538,29.52939415,7.862971306,-3.59237361,-14.56650352,2.982088804,9.46586895,-38.82546997,48.50369263,53.38346481,49.58572388,46.22750854,160.3636169,186.1507111,156.5478973,159.9232483,166.2479553,192.3554993
386,10.3135767,30.78204155,7.982963562,-3.42171979,-14.55845451,2.699701548,1.993826866,-45.21011353,40.8839798,46.10459518,43.29029083,41.57386398,162.0813293,191.3356781,154.3009186,156.860199,163.7264099,191.1311798
387,10.64523029,33.47639465,10.20184326,-1.373250484,-12.57270813,4.800600529,2.961726189,-45.36494446,40.50222015,45.68997574,42.74181366,41.17588806,162.1916504,193.2645416,155.981781,158.632782,165.5427246,192.8405914
388,35.9184761,20.87650681,8.241696358,-3.191790104,-13.34282875,12.22112274,-39.49486542,-14.04421997,-13.74302864,-12.51699066,-16.99957466,-14.94856834,159.0391541,168.6782532,169.504303,174.601059,182.0784454,202.0694122
389,34.90860367,21.91840172,9.524539948,-1.718340635,-11.59566593,12.56433487,-37.65923309,-14.54596996,-14.26392174,-13.75989723,-18.61081314,-16.85251236,144.4611053,154.9669495,155.0782776,159.8673401,167.0068665,188.3753052
390,10.05203533,31.70281601,8.703281403,-2.703722954,-13.46071625,4.72273922,10.06916904,-39.23384857,48.20225525,53.17790604,49.355793,45.83676529,161.250824,189.1600494,158.9865417,162.7108307,169.1879272,194.8998108
391,29.77615166,29.88713455,20.82808304,10.7213726,4.376319885,21.16651726,4.724300385,44.44779968,40.92319489,34.07456589,24.45459175,45.96956635,181.9699097,168.4223785,167.3760986,172.0558167,182.6599579,201.289917
392,9.506577492,31.16761017,8.383296013,-3.060989618,-13.89281368,4.19416523,10.17020416,-38.96260834,48.82268143,53.65900803,49.66711426,46.32478333,160.4051056,186.6912842,157.0296173,160.6202087,167.1355591,192.7784271
393,12.3087101,32.24723053,9.727690697,-1.756441236,-12.43939018,6.431576252,7.40814209,-40.29792786,46.81079483,51.32480621,47.40701294,43.51092911,161.7939453,185.6137085,160.0446472,163.796463,170.3155212,195.2516632
394,14.14426994,32.08106613,10.23242283,-1.11926496,-12.07544327,6.657133579,3.402031898,-42.97353745,42.975811,48.31171417,44.97576141,41.58528519,159.6645813,186.8765717,156.0411682,159.8380127,166.2921448,191.8817291
395,35.58532715,21.55152321,8.919830322,-2.586847305,-12.78279209,11.96825027,-40.04899979,-14.85906315,-14.71062183,-13.60118389,-18.05158234,-15.37062263,159.2704163,168.3753357,168.5288239,173.3074493,180.6234894,201.4710693
396,34.98497772,21.5943985,9.142680168,-2.050471783,-11.96277428,12.2892065,-38.40047455,-14.70235062,-14.39186287,-13.79272366,-18.62839699,-16.81712341,145.7316284,156.2820587,156.4797211,161.3525238,168.5773315,189.4945068
397,33.80511475,21.90100098,9.803671837,-1.222033262,-10.59954166,13.39470577,-35.13023758,-14.00143814,-14.05319786,-13.84283924,-18.58559418,-16.29621315,137.4088287,148.9994812,148.843399,153.9475708,161.4648132,183.0326385
398,29.69472504,29.69680786,20.52449989,10.24195099,5.932513714,21.63140106,1.667666435,41.20278931,37.91049957,32.6883812,20.43214989,43.26393509,175.9955139,162.4541321,161.5527191,165.6825256,176.58638,195.1476898
399,35.64728165,21.79314041,9.504868507,-1.651958585,-11.5099659,12.70119381,-38.99304581,-15.42439175,-15.02570057,-14.23138332,-18.87471199,-16.88024521,146.4770813,156.7268829,156.8882751,161.8764801,169.2185822,190.2608795
400,30.67755699,29.26365662,19.96203232,9.999211311,3.862621546,21.55540085,3.575417519,42.71366119,38.95586777,33.38573456,24.57890511,45.8885994,186.4382629,171.7765198,171.1763916,176.217804,187.3273926,205.0978546
401,33.76683044,21.8431282,9.749363899,-1.269749403,-10.63374996,13.43080235,-35.0990448,-13.93753624,-13.98859215,-13.77060986,-18.52245712,-16.30043221,137.1994629,148.8776855,148.7916565,153.9350891,161.4646454,182.9475098
402,75.13044739,41.09906006,8.870535851,-25.23208046,-56.61983871,5.854116917,7.307706833,-60.05090332,-69.93032837,-59.45747375,-32.55307007,24.82028961,158.8816681,197.3021545,206.1188812,208.4492493,207.8230743,205.2251587
403,36.23144531,25.17435646,23.22265625,3.24804163,-8.348347664,15.50170517,10.07457829,39.8388443,-41.23154068,45.77325439,43.73740387,49.3306427,164.8666077,166.4560852,194.3803406,171.3513031,179.5957184,201.9690857
404,79.76068115,41.83306885,9.058031082,-25.46442795,-56.58054352,5.640808105,11.31559372,-58.43744659,-67.82518005,-57.75845337,-30.62898827,27.62521362,165.6890564,204.1415863,212.9163361,214.8882904,212.3541107,207.8921967
405,32.68805313,20.59042549,16.96450806,-1.356950879,-13.2830534,10.0124712,11.03831196,41.36639404,-39.61886215,47.62322998,45.60556793,50.70471573,164.3702087,166.1026611,190.5459137,170.0131836,177.9572144,200.6514435
406,31.46518898,30.43560982,21.58368301,11.46887112,5.00132513,22.24145317,4.323148727,43.60050201,40.13560104,34.3046608,26.48608017,47.12585449,187.2136078,171.7835236,171.0301971,175.6861572,186.1829987,204.4208679
407,35.15276718,22.83795929,20.42990685,0.552691996,-11.22077274,12.23583794,12.15669727,41.37641525,-39.63460159,46.97983551,45.04720306,50.29579926,160.8686523,163.6375427,188.373642,167.8760986,175.7874756,198.3347168
408,35.06297684,21.5532856,9.044063568,-2.116019487,-12.01092529,12.39090252,-39.35266113,-15.12283039,-14.80989647,-14.16249657,-18.98420906,-17.20441055,146.3857269,156.4743652,156.7273254,161.6216278,168.9220734,189.7527313
409,83.05723572,10.18790245,0.91659379,-12.35854912,-23.40789986,-3.626875639,-9.211186409,-19.73163605,-16.47800255,-13.09100723,-17.13667107,-23.85231018,202.5759583,182.8499908,181.7581024,186.1958771,191.6568909,216.5668793
410,35.33462524,21.60952377,9.100406647,-2.082382202,-11.96182442,12.4005785,-39.45379639,-15.31716537,-14.98373508,-14.33066463,-19.11701393,-17.33815384,146.1931152,156.4260101,156.6885376,161.5459442,168.8409729,189.7589874
411,35.78540802,21.7920208,9.269295692,-1.916989684,-11.8181448,12.32880497,-40.20027161,-16.09687614,-15.73507881,-15.01902485,-19.79337883,-17.87610435,147.7929077,157.9136353,158.0590515,162.8566742,170.0917664,191.1396484
412,35.86717224,21.80792236,9.305747986,-1.877791882,-11.76334667,12.35556507,-40.1583252,-16.15386581,-15.78919029,-15.0699482,-19.83904648,-17.89138794,147.6730804,157.8439484,157.9717407,162.7752533,170.0173492,191.1004181
413,77.53129578,39.25102997,6.726338863,-28.21660805,-60.77786255,3.491560698,10.37086487,-59.16134644,-68.60627747,-58.18993378,-30.15480995,27.41005516,165.9641418,202.4488525,211.20784,214.9948883,213.9594269,208.6451569
414,34.26322174,22.89366913,20.25118637,1.011083245,-10.62496758,12.96573925,9.581593513,40.5235405,-41.23400879,46.09215546,43.95320129,49.40587234,165.0805511,166.2236786,193.172226,170.5800323,178.8640137,201.2506714
415,73.72911835,39.27694702,6.766262054,-27.34330559,-59.14175034,3.745157719,7.419511795,-60.20514297,-69.63445282,-59.23985672,-32.35825348,25.25382996,157.2727203,195.862793,203.0291138,205.4032593,205.7041473,203.0401917
416,83.72261047,10.64605522,1.903684378,-11.51414108,-22.53175354,-2.948395014,-10.98992729,-21.35705376,-17.50464249,-13.66169167,-17.50030327,-24.65643311,197.8802338,175.5146179,174.7408905,179.8744049,185.2842407,210.4857635
417,84.47125244,11.00520039,1.854218483,-11.39384079,-22.28204727,-2.215162277,-8.516952515,-19.64627838,-16.68414116,-13.19617748,-17.34835052,-24.28254318,202.3046417,181.1746826,180.1083984,184.7808228,190.2782593,214.7252502
418,77.15222168,39.58118439,7.363060474,-26.77837944,-58.84740829,4.33675909,10.15074348,-58.34552002,-67.56650543,-57.21362686,-30.03184509,27.42372131,164.0560455,200.6060486,208.4665375,211.1203918,211.1388397,208.094696
419,34.93515396,20.65032959,8.020682335,-3.502700806,-13.64320564,11.19874763,-39.87850571,-14.72870922,-14.58641529,-13.4414835,-17.8742485,-15.32626629,158.4607086,167.5932922,167.9055939,172.6881866,180.0269012,200.7734222
420,77.60726166,39.8080101,6.960442543,-27.92391777,-59.72362518,3.555005074,11.58729172,-57.81840134,-67.33250427,-57.10129547,-29.62986374,28.36838913,166.4799805,204.1283569,212.7051697,215.2301483,213.1945343,208.2577972
421,11.87201881,31.40999794,9.439043045,-2.022204399,-13.00021172,5.066845417,2.802464485,-44.58205795,41.67840958,46.98694229,43.52975845,40.88580322,163.4944611,192.5477448,158.8132172,162.2600861,168.7822266,194.9528961
422,36.40553284,21.36787224,8.777053833,-2.610708714,-12.72760773,12.69978905,-40.14457703,-14.31596661,-13.99956226,-12.69216919,-17.0122242,-14.54749012,156.5480499,165.2376099,166.1220551,171.1164703,178.5611572,198.4842377
423,14.01211643,32.50478363,10.0051012,-1.367669463,-12.28068256,6.610125065,2.456201553,-44.19811249,42.05743027,47.2536087,43.813797,40.70104599,160.417572,188.5285492,156.6010895,160.3295288,166.9141693,192.3879395
424,14.63446045,35.72989273,12.87954426,1.472339749,-9.679300308,8.03133297,2.78882885,-44.60860825,41.53787231,46.83812714,43.9855423,41.77475357,161.5044708,190.4068909,154.4741516,157.2498169,164.2115479,191.3909454
425,31.48852348,31.67394257,22.83395004,12.83727932,6.485267639,22.71798706,4.202507019,43.61471176,39.276371,31.17716026,23.34525299,46.02797699,184.7301941,170.5171051,169.6488953,174.5368042,184.41745,203.2939148
426,35.42691422,21.6587925,9.181970596,-1.999657393,-11.87442207,12.45852089,-39.47568512,-15.46273136,-15.14777756,-14.47970486,-19.22527504,-17.34436607,146.1912079,156.444519,156.6659088,161.5482941,168.8431549,189.8206177
427,30.56214905,30.15060234,21.57143974,11.28638744,5.044769287,21.92102432,4.700917244,44.17725754,40.97240067,33.69543076,25.57958794,47.05653381,186.7666168,172.0498505,171.2695313,176.1432648,186.5024261,204.9884338
428,34.46336746,22.484869,10.4413929,-0.607006848,-9.853737831,14.2556181,-35.58698654,-14.22922993,-14.34182835,-14.23542976,-19.03133583,-17.08937645,138.331665,149.9813843,149.7897034,154.8339844,162.3943787,184.2511597
429,35.8755188,21.34078979,8.815838814,-2.637537003,-12.77974606,12.09064579,-41.72037506,-16.5538559,-16.31085968,-15.25467014,-19.63161278,-17.0035038,156.594162,165.5996094,165.9333801,170.7502747,178.1332855,199.0507813
430,30.61105156,30.98404312,21.93520737,11.82117748,5.508366108,21.92936897,2.782019615,42.67041016,39.40772629,33.29810333,22.59779739,43.91895294,181.6476288,168.500885,167.1885223,171.6693268,182.5723114,201.2736816
431,85.84897614,10.23610497,1.82468462,-11.34422588,-22.34119034,-2.93973279,-5.537347317,-18.98636436,-17.02411842,-13.70201397,-17.49644279,-22.17546082,208.6977844,183.0637665,181.2734222,185.9459076,191.8321533,216.9338226
432,28.74774742,31.01669884,21.86262131,12.29024792,6.733014107,22.38741875,2.582328796,42.85076523,40.08436584,31.76296997,19.76067734,43.00101852,175.5043793,163.0757599,161.6651001,166.1120605,177.0654755,196.2621765
433,33.59617615,20.58332443,7.864230156,-3.505864859,-13.63802147,10.6032505,-41.10154343,-16.72096443,-16.56248665,-15.95405579,-20.62324524,-18.31855202,151.6851196,160.2520294,160.2250366,164.9608459,172.0778809,193.546936
434,35.426651,21.6852951,9.245357513,-2.010188103,-11.92914009,12.40723515,-39.61167145,-15.99939442,-15.65211964,-15.00200462,-19.72889328,-17.82991409,147.5675812,157.3656006,157.5167999,162.3967896,169.5765533,190.9739685
435,85.41958618,12.90285015,4.245766163,-9.198720932,-20.30990791,-0.903297007,-11.64626503,-20.86629105,-17.08810997,-13.32233334,-17.19872665,-24.86983681,194.917923,173.1943665,172.196228,177.4461975,182.8050995,207.9876556
436,34.8303566,22.8381691,10.79253387,-0.290656626,-9.611459732,14.31699467,-35.61141586,-14.02783108,-14.13009071,-13.95300293,-18.63893127,-16.44291878,139.1357117,150.0404816,149.7480469,154.6739349,162.2024078,184.1539917
437,36.90617752,21.46493149,8.902239799,-2.49759388,-12.51423168,13.3771677,-40.13953781,-14.65409374,-14.33632278,-12.86003971,-17.09321785,-14.66368294,156.2596741,165.2269287,166.2796173,171.5076294,179.1439209,198.760498
438,83.54473114,10.75581646,1.951242447,-11.47430134,-22.5152092,-3.060106754,-11.23829079,-21.16475105,-17.457901,-13.65477371,-17.50530434,-24.59934998,198.3855133,176.3709412,175.3705139,180.3712158,185.7852783,211.0753479
439,10.21752167,28.80761719,6.605979443,-4.82674408,-15.57780647,2.621185541,3.483095169,-42.23928452,43.44688797,48.55628204,45.27668762,42.98096466,165.6196136,193.1844482,160.1676788,163.3476257,170.0222321,195.8410339
440,34.44510269,20.99364853,8.389635086,-2.78350997,-12.70239639,11.58218765,-40.14133453,-15.86252594,-15.55672741,-14.88920975,-19.59207535,-17.67234802,147.9031677,157.6484222,157.7940674,162.6849518,169.9672089,191.0049286
441,35.17289352,23.06190491,20.83542252,0.791037738,-10.83422279,12.52276421,12.38594818,41.9277916,-39.40555191,46.92793274,44.932724,50.21460342,160.5699768,163.4898529,187.8350372,167.5766144,175.5135345,197.9727631
442,35.75231171,22.00278854,9.719424248,-1.4778409,-11.37527275,12.74273491,-39.02528381,-15.62427425,-15.24300289,-14.50442219,-19.1457901,-16.89502716,147.2752838,157.3134918,157.3997803,162.3089905,169.6165924,190.7712555
443,35.57345581,20.92330551,8.251068115,-3.206478834,-13.23618603,11.66584969,-40.01529694,-15.09050465,-14.9771843,-13.96608257,-18.49784851,-15.92915535,157.3591766,166.5771179,166.8552704,171.7266693,179.2073669,200.077652
444,31.32644653,29.61253357,19.62839508,9.463335037,5.08334589,21.5741787,6.216091156,45.09566116,40.19198227,36.6378212,27.04325867,49.90247345,191.2723236,176.6811523,176.6269073,181.1816864,191.9304352,209.8054504
445,34.80641937,22.61217308,19.32596588,0.435920835,-11.44481087,11.87734032,12.44912624,42.10179138,-38.66459656,47.55836487,45.88929367,50.98199081,162.4606323,164.9914856,188.9818878,168.9743347,176.8137665,199.5330353
446,77.2077179,39.20256042,7.081642151,-27.71369934,-60.26475906,3.60087657,10.50639534,-58.79309464,-68.21556854,-57.90513229,-30.12374496,27.53294563,165.4115601,202.3614349,211.0647888,214.5320892,213.7327728,208.7354736
447,33.17374039,20.67205048,8.04308033,-3.306974649,-13.5695467,10.5794487,-39.84700012,-15.56145477,-15.16578197,-14.42817116,-19.16667557,-17.69631004,149.6964111,158.9872894,159.0077209,163.8281097,170.7854767,192.2654572
448,30.36559677,29.28452301,20.10606194,10.09882927,3.895095825,21.46728706,3.169333458,42.60341644,38.81298447,32.13850021,24.14671516,45.46172333,186.1775208,171.7153168,171.1087494,176.1955719,186.8639221,205.0296936
449,37.13028336,22.82485008,10.28060818,-1.145623922,-11.30814648,13.1696291,-41.83990479,-16.98667526,-16.72307396,-15.72233868,-20.18736839,-17.63918114,156.6166077,165.005127,165.1567078,169.8930054,177.0853729,198.2963104
450,84.23617554,11.54186058,2.896045208,-10.62342358,-21.73522758,-2.231820107,-11.20409393,-21.73600578,-17.78800392,-13.83198833,-17.65408325,-24.76242828,196.2664032,174.7103271,174.0971985,179.2713928,184.5786591,209.8110657
451,10.7825222,33.36465073,10.24803734,-1.288745165,-12.48052025,4.890127182,3.074663162,-44.88417816,40.984272,46.13373566,43.14076233,41.40559006,162.1647339,192.5848236,156.0667572,158.7105255,165.5946045,192.7020721
452,9.144851685,29.58940506,7.96307373,-3.484066963,-14.44745064,3.049962759,9.305247307,-39.04578018,48.33764648,53.26911545,49.53032303,46.11010361,160.5117188,186.3758392,156.640213,160.0431671,166.3930359,192.6406097
453,83.63161469,10.80548668,2.03472662,-11.38256073,-22.39736748,-2.749476194,-10.85390186,-21.19153786,-17.35573769,-13.51398945,-17.39864159,-24.64813614,195.6609955,174.1607971,173.5506439,178.7875519,184.2196808,209.2776337
454,35.25621033,20.99957466,8.414053917,-3.048200846,-13.19262981,11.72974396,-42.03455734,-16.79341125,-16.62549973,-15.55951309,-19.89871597,-17.33703423,156.7982788,165.7792053,166.0466309,170.8861084,178.2775879,199.2422638
455,8.734514236,30.39614105,8.262420654,-3.178388596,-14.10288429,3.485735655,10.1644249,-39.35266876,48.94684219,53.73947525,49.73239899,46.19900131,158.4028473,184.9680481,155.0257263,158.4683075,164.8370361,190.8768005
456,90.51047516,14.92420959,6.600381374,-6.644133568,-17.54737663,1.570714593,-6.382992268,-19.20134735,-17.13051224,-14.13536835,-18.3876667,-23.80857277,209.2927246,183.1694336,181.3967285,185.5683136,191.0157166,216.564682
457,8.689452171,27.47673988,5.971630096,-5.535524368,-16.60816002,1.464622378,7.761873245,-39.55055237,47.00301743,51.82113266,47.99451828,44.42100143,159.4291534,185.6856842,157.2135773,160.688324,166.8940582,192.3802032
458,74.456604,41.06615829,9.025238037,-24.98059273,-56.79185486,5.689808369,6.870363235,-60.09528732,-69.92357635,-59.64451218,-32.84191132,24.60478973,157.3169098,196.1169586,204.4412231,207.0575562,207.0311737,204.1639709
459,-55.05567551,-67.1153717,-82.47301483,-88.23862457,-92.23674011,-52.60967255,215.4120483,194.2480774,204.4721985,191.1151581,177.5762024,172.2282257,184.8649292,214.0915833,156.7402954,143.5200348,139.5289001,141.2525482
460,83.46529388,10.50913906,1.652978182,-11.74833012,-22.74271393,-2.939876556,-10.75679016,-20.9114666,-17.19064903,-13.38348103,-17.35882568,-24.60993576,197.6138611,176.4051056,175.7306671,180.9075775,186.3392029,211.2362671
461,14.81415653,35.71706009,12.89803028,1.47338295,-9.69559288,8.012486458,2.791513443,-44.65517044,41.56085205,46.86261368,43.99975204,41.7330513,161.3979492,190.2035828,154.3181915,157.096344,164.0250244,191.2552338
462,36.49414063,21.41831017,8.928997993,-2.457877636,-12.60050106,12.79482746,-40.35264206,-14.36865997,-13.95707226,-12.51563549,-16.74602318,-14.55305672,156.3886871,165.2267303,166.0878754,171.0994263,178.4823608,198.5042419
463,30.22377014,30.28119278,21.29786682,11.22723389,6.499313354,21.98907089,2.942346573,42.6107254,38.99204636,33.74810791,21.0898037,44.42683411,178.2297668,164.1652222,163.068222,167.5700226,179.0500031,196.9373779
464,78.17268372,40.64186096,8.113165855,-25.94325638,-57.91654587,4.544402122,11.78260326,-57.96912766,-67.05796814,-57.00559235,-30.2153244,28.39029694,165.8671112,203.5749969,210.0219727,212.2845764,211.9714661,207.6493378
465,10.70760727,32.10100937,9.48698616,-2.033625364,-12.84257603,5.505991936,7.608182907,-41.2240181,46.39236069,51.08036423,47.19268036,43.53146362,161.8270111,187.7053223,159.33992,162.9100189,169.3970184,195.0599823
466,35.0702095,20.93667984,8.263871193,-3.209091187,-13.37807369,11.18755722,-39.69699478,-14.38488007,-14.2250185,-13.17616081,-17.69409561,-15.46575451,157.3110809,166.3557892,166.455719,171.1923218,178.4902039,199.583313
467,37.72942734,24.38006973,11.58984756,0.28251642,-9.799404144,15.17673492,-39.34484482,-13.32756233,-13.11203671,-12.15638924,-16.8828373,-15.2353754,153.789856,163.0070038,163.5540924,168.4807587,175.6992035,196.0326233
468,84.74362946,11.17577934,1.983595133,-11.24463081,-22.13384819,-1.989465952,-8.39366436,-19.56915283,-16.53452873,-13.10176373,-17.25990486,-24.27485466,202.5280609,181.2934113,180.1848145,184.9226227,190.4329987,214.8299561
469,32.11756897,30.04243851,21.07053947,10.98025703,6.280119419,22.44866562,6.052423477,45.36292648,40.94136047,36.02344131,26.43297005,49.1123848,189.4535522,174.8379364,174.3822479,179.0868988,189.6229401,207.8068237
470,35.13927078,23.06551933,20.75439072,0.820962727,-10.89783192,12.57105637,12.3956356,41.86167526,-39.42793655,46.95712662,44.9723587,50.25032425,160.7545013,163.6478882,187.9836121,167.75177,175.6642914,198.1481934
471,32.14442825,29.82675743,20.0062027,10.31124306,5.625713348,22.03712082,6.181517601,44.82694626,39.30425262,35.04673386,27.16071892,49.49315262,191.068634,176.2361603,176.3872833,181.072525,190.5774078,208.8588867
472,11.19142532,29.02754211,7.441398621,-3.941156864,-14.81599426,2.852832794,1.885458946,-43.08774948,42.29639435,47.43115234,44.2494545,42.06893158,165.9160156,191.7781372,159.0530548,162.0462646,168.6416626,194.8682098
473,31.95876503,30.47279549,21.84181213,11.60527134,6.6199646,22.3786068,4.88140583,44.37439346,41.47899628,35.88222504,25.32888603,48.00099182,188.0814056,173.0820465,172.4106445,177.1555328,188.4720764,206.2766724
474,74.55640411,40.1171608,8.49162674,-25.39999008,-57.41801071,5.00001812,7.180610657,-59.94417572,-69.74559784,-59.52035141,-32.79766464,24.87095642,158.4875336,195.9780121,204.2285614,206.7987671,207.2071075,204.6980286
475,33.52413177,22.31370735,18.63016319,0.331288874,-11.54943085,11.68814564,10.83538914,40.37923431,-40.26699066,46.54133987,44.81472397,50.33905792,164.029129,165.3974457,192.5443726,169.7177277,177.9185944,200.6700745
476,9.281009674,30.75824165,8.193580627,-3.205265522,-13.99056721,4.039597511,9.978390694,-39.34365845,48.35758209,53.31643677,49.41271973,46.12881088,159.2024536,185.9455566,155.5701447,159.140152,165.6943512,191.484375
477,9.45465374,30.07515144,7.700563431,-3.773616314,-14.67726135,3.307513475,9.428005219,-38.80095291,48.53991318,53.39247131,49.65603256,46.4354248,161.7273407,187.3254547,157.3941193,160.8427887,167.3535309,193.2406616
478,74.49596405,40.57579803,8.804659843,-25.00307846,-56.70423126,5.342195034,7.231161118,-59.85260391,-69.78704834,-59.46023941,-32.97307968,24.78319168,156.9838867,194.6661072,202.8681793,204.9150696,205.2409363,203.5395813
479,33.61510468,21.34188652,8.808819771,-2.585837841,-12.80744934,10.91284752,-39.936306,-16.16283798,-15.87014389,-15.24000835,-19.91953278,-18.25065804,149.459137,158.9598083,158.6357727,163.2804108,170.0934143,192.2086182
480,13.55245781,32.32855606,10.25063992,-1.133437037,-12.02703667,6.624419212,2.883274078,-44.01716232,42.32740784,47.5660553,44.13729095,40.95252609,162.2385712,189.4747772,158.2124329,161.9556122,168.5591888,194.2038727
481,85.3327179,12.82937145,4.203804016,-9.243778229,-20.3708744,-0.959945738,-11.5738945,-20.89733696,-17.03422356,-13.22020245,-17.079216,-24.79864693,194.8636017,173.0787048,172.1925049,177.5153656,182.8543854,207.9938202
482,85.90906525,11.22708702,3.038757563,-10.32865715,-21.3815937,-2.281676054,-11.40831089,-21.80960846,-18.75460052,-15.06149006,-18.70725441,-24.86369896,200.6073608,176.3040009,174.7265167,179.6942291,185.3276672,211.1400757
483,35.88887787,22.41359329,9.81682682,-1.591499329,-11.70682526,12.6129961,-41.92702103,-16.70469666,-16.59359741,-15.76087093,-20.29770851,-17.58043861,156.2093353,164.4981537,164.4610596,169.0429993,176.1909027,197.6215973
484,36.46958542,21.84315681,9.13305378,-2.244427443,-12.26329899,13.12069893,-40.32243729,-14.6268568,-14.40616226,-13.12835693,-17.48880005,-15.08049583,154.8811035,163.7586517,164.4378357,169.4776001,177.0187073,197.0300598
485,75.01965332,39.72097015,8.070659637,-25.6145134,-57.56184006,4.952994347,9.620358467,-57.68239212,-67.05950928,-56.80752945,-29.96304131,27.43833542,161.563858,199.7310028,207.4446564,210.1002502,210.5742188,207.3664856
486,35.8319931,21.61006927,9.027626038,-2.391865969,-12.4696579,12.73066807,-39.26163864,-13.60813904,-13.43617153,-12.35600185,-16.86418724,-14.48684216,158.6190796,167.6361847,168.2821655,173.1990662,180.5387421,200.9043884
487,36.14686584,24.81362152,22.96427727,2.905674934,-8.545279503,15.52206802,10.25305939,40.52878571,-40.93000412,46.10869217,44.0234375,49.6255188,166.0726166,167.2328644,195.4893341,172.3544006,180.7485504,202.7059174
488,30.17612648,29.61108971,20.14794922,10.18405437,5.844228745,21.39103889,1.301384926,41.09335327,36.53216171,32.23025131,20.45617485,43.38298035,178.0899658,164.4780884,163.5801544,167.3817902,178.2137604,197.1990356
489,31.14775276,30.08415985,21.46261406,11.20381355,6.28954649,21.99406433,5.001499176,44.27473068,41.40499496,35.41594696,25.26535606,47.88770294,188.1076965,172.9736328,172.467926,177.2020569,188.2469635,206.0628967
490,83.84712219,10.5483408,1.35103929,-11.95718193,-22.90862846,-2.867041111,-8.531290054,-19.87727165,-16.7267952,-13.21600342,-17.20000076,-23.60928535,203.6311951,183.3885193,182.1760254,186.8922882,192.5031128,217.4091797
491,87.56781006,12.60098362,4.089150429,-9.148566246,-19.97685814,-0.330147833,-4.656209469,-18.71667671,-16.94930649,-13.76512909,-17.68872833,-21.55231857,209.1165466,183.1667023,181.4083405,186.2290497,192.145813,217.269928
492,9.32121563,30.14861679,7.832536697,-3.595449209,-14.40557384,3.607034683,9.302261353,-39.0295105,48.46847534,53.33998489,49.64737701,46.36654663,163.2153625,188.353653,158.8487854,162.3396606,168.9645996,194.8262482
493,36.07173538,21.74714088,9.058041573,-2.427803278,-12.68719578,12.192873,-40.03937531,-14.4830761,-14.31618786,-13.2758503,-17.83336639,-15.40725899,159.3697968,168.6266174,168.943634,173.7305908,181.0256348,201.6825867
494,35.46956253,23.0332222,10.95884228,-0.09685576,-9.464343071,14.67171001,-35.13074875,-13.56256104,-13.56944084,-13.2553215,-17.86516762,-15.57538986,139.5728149,150.255722,150.0492554,155.0950165,162.7241058,184.4142914
495,11.16015911,32.85129929,9.889913559,-1.578841686,-12.81209755,5.172346592,3.242277145,-44.34887314,41.25421143,46.599617,43.81921768,41.90761948,160.8845978,190.5960388,154.9172668,157.8430176,164.9600372,191.7795105
496,35.83088303,23.50566292,11.48412514,0.533262968,-8.753220558,14.98528576,-34.98065567,-13.30780888,-13.40651321,-13.16056252,-17.78827286,-15.13642216,142.0510406,152.5224304,152.020752,157.0376892,164.6380005,186.4889374
497,31.45603943,30.3021946,21.59535789,11.34859753,6.528580666,22.11968613,5.008970261,44.28183365,41.23636246,35.63896942,25.30358315,48.0002594,188.475235,173.2808838,172.7373047,177.3130798,188.2806549,206.2293091
498,33.3253746,21.64364243,17.89859009,-0.459883034,-12.55798912,10.61040497,11.54662132,41.29220963,-39.86659241,47.7233963,45.7299118,50.94691849,163.9694061,165.8701172,191.4467468,169.7130737,177.5297089,200.6269379
499,29.30881691,30.47923279,21.58276749,11.57004547,6.645944118,22.09581375,2.97293663,43.01547623,39.76622391,33.27462387,20.54308891,44.16594315,176.8040466,163.1943665,162.1561279,166.6963348,178.1547546,196.2613525
500,35.37386703,21.22128487,8.623459816,-2.851215363,-12.98834705,11.82417488,-41.55737686,-16.44182968,-16.29778099,-15.26951408,-19.69773865,-16.96348381,157.9929962,167.0067596,167.2515869,172.0978699,179.4945526,200.3961182
501,32.39660263,20.4160347,16.93718338,-1.648628592,-13.52673054,9.923852921,11.47107506,41.84206009,-39.62282562,48.15572357,45.98642349,50.91065598,165.0536041,167.3051758,191.7414093,171.2984619,179.2830505,201.9131622
502,80.50653839,40.82851791,7.56518507,-26.72915459,-57.40494537,4.513279438,11.62989712,-58.81758881,-67.75234985,-57.61151505,-31.11256218,27.56725121,168.8460083,206.6782227,213.8947144,214.8753204,212.4124451,208.7001648
503,90.5076828,14.77147198,6.466861248,-6.709279537,-17.61712837,1.457523704,-5.943845272,-19.25499535,-17.10895157,-14.15809059,-18.3820076,-23.67629623,209.7441254,183.4809265,181.6563263,185.793457,191.2639923,216.7987671
504,35.55885315,21.05556297,8.330337524,-3.105492592,-13.18257427,11.67460251,-39.87885284,-14.77513027,-14.67349148,-13.66812706,-18.21504021,-15.75689507,157.730545,166.9767914,167.2009735,172.0361328,179.4627228,200.2966766
505,88.96121216,12.95394993,4.546807289,-8.63393116,-19.49386024,0.427374095,-5.503526688,-18.74057388,-16.73448181,-13.67522049,-17.69823837,-23.17810249,205.4264069,182.1152344,180.6072388,185.4765015,191.2482452,216.1334686
506,31.25703621,30.65064049,22.14554596,11.86543751,7.023439407,22.22533798,4.505889893,44.21006393,41.14055252,34.70266342,23.76208305,46.96273804,186.434433,171.3631287,170.4013672,175.0610504,186.1235504,204.3059082
507,33.81513596,22.74950981,19.71306038,0.833166718,-10.92685509,12.56914902,10.17572689,40.6207962,-41.6298027,46.26086807,44.11919022,49.5478096,163.8125305,165.1447144,193.31427,169.6022644,177.8011932,200.4013672
508,88.17430878,12.00708008,3.689029455,-9.450702667,-20.3810997,-0.89664501,-4.757447243,-19.50064278,-17.5172348,-14.24326706,-18.15642738,-22.73154259,208.7848969,184.2389526,182.4555054,186.8391113,192.6256409,217.7223358
509,40.69075012,29.89994431,28.3381443,7.748235703,-3.901580572,20.25243187,10.54326725,39.73771286,-41.00866699,45.78714752,43.705513,49.58606339,165.3043213,167.0152283,195.4122467,172.1178131,180.2941742,202.4406586
510,8.980008125,30.34457207,8.226874352,-3.214722633,-14.13359451,3.461779833,10.07000065,-39.28810501,49.01049805,53.77126312,49.75770569,46.20038605,158.669632,185.084198,155.3205109,158.742157,165.0989838,191.1152039
511,29.39811134,29.50464058,20.34167099,10.25522423,5.801130772,21.39347458,1.889913559,41.44303131,38.38601685,32.93871689,19.90633583,43.30392456,175.526062,161.8862305,160.8938904,165.1150513,176.4075623,194.6232147
512,32.67230225,20.45596313,17.17918396,-1.39107132,-13.2448864,10.38400173,11.1435957,41.8047142,-39.44090652,48.15666962,46.09622955,50.88519669,164.2302399,166.4371338,189.9647522,170.5299377,178.6203613,201.111618
513,10.88240242,33.12477875,9.792593956,-1.690525293,-12.82560921,4.728374958,2.701630592,-44.92222977,40.7276001,45.87818146,42.97237778,41.42708969,161.9673157,191.9641113,155.282608,157.9490967,164.917923,191.9981995
514,85.29443359,12.61393738,4.009850979,-9.425120354,-20.53267479,-1.397601604,-12.29487133,-21.38188553,-17.2360096,-13.45162773,-17.24947929,-24.73314476,196.1288605,173.0934601,172.2397614,177.2520599,182.592453,208.0870972
515,87.02779388,10.6677227,2.341627121,-10.75699043,-21.75808144,-2.239827871,-4.419745445,-19.31062126,-17.19419289,-13.92918301,-17.75908089,-22.51070976,209.7396698,184.0526276,182.4108124,186.9275055,192.8041534,217.789978
516,35.87726593,21.14014626,8.603437424,-2.846231937,-12.9792366,11.90704155,-42.28626633,-17.09686279,-16.84881592,-15.68674755,-19.92794418,-17.17022896,157.4086761,166.1265106,166.3612366,171.1755524,178.6048584,199.588974
517,12.58663464,31.13227463,9.483949661,-1.900935054,-12.89169693,5.447398186,3.182897568,-43.63224411,41.82076645,47.38261795,44.13174438,41.37526703,161.1082458,189.2520599,156.4077606,160.1557007,166.6898651,192.7450562
518,36.65327072,22.27273369,9.555753708,-1.826223969,-11.90043449,13.20987415,-39.9731102,-14.36307716,-14.14609146,-13.00062847,-17.4387207,-15.09160137,156.6713562,165.401535,165.9110565,170.8047333,178.2420959,198.6694336
519,35.22000122,21.1423378,8.52398777,-2.952907085,-13.08950329,11.78571415,-41.44081116,-16.27895546,-16.13418961,-15.1183691,-19.57585907,-16.86592484,158.167984,167.2677155,167.5560455,172.4431,179.8668518,200.6344147
520,84.20566559,11.15224743,2.375201702,-11.08815289,-22.1568203,-2.613956213,-11.4468298,-21.80236626,-17.92736053,-14.11625099,-17.95441437,-24.87233734,198.4785767,176.067337,175.1795654,180.1977844,185.5710907,210.8070374
521,9.544164658,30.90294838,8.312345505,-3.121037483,-13.93329716,4.444853783,10.37605762,-38.85307312,48.9718132,53.84534836,49.94332123,46.23849106,161.040329,187.0914612,158.7661591,162.5686188,169.1272278,194.5162048
522,83.67350006,10.74952221,1.983737469,-11.44515419,-22.4970665,-3.09784174,-11.47102356,-21.32153702,-17.65767479,-13.86852455,-17.68390083,-24.71505356,198.7252808,176.408371,175.3800507,180.3356476,185.7671051,211.1469421
523,7.832513809,27.36216927,5.44675684,-6.140490532,-17.16805077,0.834607303,5.872753143,-40.61906815,46.09095383,50.94295883,47.23862076,44.85476685,171.4620209,196.7391357,165.2672729,168.1243439,174.8631134,200.6007385
524,10.20196342,33.83512115,10.25626755,-1.241250634,-12.36744022,5.209838867,2.850345612,-45.68284988,40.57759857,45.69865036,42.66404343,40.814785,162.2649231,193.3550873,156.7438812,159.448288,166.4954529,193.4138031
525,44.11730576,33.7808342,31.02659035,11.51007175,-0.298184395,23.2898941,10.38438702,39.72782898,-39.57029724,45.51335144,43.9312439,49.82458878,166.7198181,167.8053131,195.351944,172.0053406,180.0038757,202.4905396
526,74.85649872,40.78973007,8.557798386,-25.41049194,-56.66276169,5.633499146,7.189328194,-59.77231979,-69.77406311,-59.32658768,-32.47319412,24.86577415,159.3769226,197.0470428,206.0812073,208.3718109,207.7304993,205.643631
527,84.73036194,11.33173752,2.042685986,-11.15090656,-22.02733803,-1.903104424,-8.043493271,-19.28009605,-16.21138191,-12.90671253,-17.09486008,-24.15068817,201.9727478,181.3305817,180.2071838,184.7853851,190.2692871,214.6532745
528,36.95719528,21.9892292,9.50152874,-1.948756695,-12.09189224,12.93411732,-42.12391281,-17.4477272,-17.09912682,-15.87992382,-20.2032299,-17.46702003,156.5999603,165.5119629,166.0612946,171.0279541,178.4193726,198.9041901
529,30.19369125,29.43434334,19.76999283,9.824910164,5.52473259,21.35055161,1.5854702,41.19550323,36.85266113,32.73971176,20.71183205,43.63892365,178.5802155,164.9645996,163.9951172,168.0502625,179.363678,197.8302002
530,83.40560913,10.50953007,1.913301349,-11.46615028,-22.61517525,-3.586010218,-12.29685116,-21.66399384,-17.64004326,-13.97691345,-17.70432663,-24.78516006,197.5743713,174.7794647,173.7271729,178.5509644,184.0270233,209.7421265
531,35.38091278,21.76628304,9.285580635,-1.912641764,-11.77810955,12.57863808,-39.2334938,-15.28077221,-14.9676466,-14.32617283,-19.11654282,-17.31051826,145.7683105,156.115097,156.381485,161.2353668,168.5144348,189.4823608
532,31.80894279,29.88764,20.7794323,10.59152603,4.152227402,22.29457855,4.882354736,43.75873184,40.40215302,35.59289932,27.56982613,47.78162003,189.7515869,174.8801727,174.4134827,179.2913361,190.2817535,207.5348816
533,7.376472473,28.82274055,6.075875282,-5.575378418,-16.7829628,1.013663054,5.710094452,-41.54613876,45.38952637,50.19907379,46.6125412,44.02708817,166.4338226,193.3092346,161.2478485,163.9697113,170.5639954,196.5273285
534,42.39426041,32.41563034,30.63210678,10.19530296,-1.296054006,22.91316223,10.68891811,40.56188202,-40.33907318,45.90882111,43.96100616,49.1493721,164.3855286,166.4712372,192.1085358,171.2197876,179.5610504,201.552597
